   2.00  24.610  26.474
   2.50  24.636  26.474
   3.00  24.610  26.474
   3.50  24.610  26.474
   5.62  24.636  26.474
   6.12  24.610  26.474
   6.62  24.636  26.659
   7.12  24.636  26.659
   7.62  24.636  26.474
   8.12  24.636  26.474
   8.62  24.662  26.474
   9.12  24.610  26.288
   9.62  24.662  26.474
  10.12  24.688  26.288
  10.62  24.688  26.659
  11.12  24.662  26.474
  11.62  24.662  26.288
  12.12  24.662  26.288
  12.62  24.688  26.103
  13.12  24.662  26.474
  13.62  24.740  26.288
  14.12  24.688  26.103
  14.62  24.662  26.288
  15.12  24.714  26.103
  15.62  24.714  26.288
  16.12  24.688  26.103
  16.62  24.688  26.103
  17.12  24.740  26.103
  17.62  24.740  26.103
  18.12  24.766  26.103
  18.62  24.819  26.103
  19.12  24.740  26.103
  19.62  24.740  25.918
  20.12  24.740  26.103
  20.62  24.766  26.103
  21.12  24.792  25.918
  21.62  24.792  26.103
  22.12  24.792  25.918
  22.62  24.792  26.103
  23.12  24.819  25.918
  23.62  24.819  25.918
  24.12  24.845  25.918
  24.62  24.845  25.918
  25.12  24.845  25.918
  25.62  24.871  25.918
  26.12  24.819  25.918
  26.62  24.845  25.918
  27.12  24.871  25.732
  27.62  24.819  25.918
  28.12  24.871  25.732
  28.62  24.871  25.732
  29.12  24.819  25.732
  29.62  24.897  25.918
  30.12  24.923  25.732
  30.62  24.923  25.732
  31.12  24.897  25.918
  31.62  24.897  25.547
  32.12  24.897  25.732
  32.62  24.923  25.732
  33.12  24.923  25.918
  33.62  24.949  25.547
  34.12  24.949  25.918
  34.62  24.949  25.732
  35.12  24.949  26.103
  35.62  24.923  25.732
  36.12  24.949  25.732
  36.62  25.005  25.547
  37.12  24.975  25.732
  37.62  24.975  25.732
  38.12  24.949  25.547
  38.62  24.949  25.547
  39.12  25.005  25.547
  39.62  25.005  25.362
  40.12  25.005  25.732
  40.62  25.005  25.732
  41.12  25.005  25.547
  41.62  25.005  25.547
  42.12  25.005  25.547
  42.62  24.975  25.547
  43.12  25.114  25.547
  43.62  25.114  25.547
  44.12  25.222  25.547
  44.62  25.222  25.547
  45.12  25.222  25.732
  45.62  25.114  25.547
  46.12  25.114  25.547
  46.62  25.222  25.362
  47.12  25.222  25.918
  47.62  25.114  25.362
  48.12  25.330  25.547
  48.62  25.330  25.732
  49.12  25.547  25.362
  49.63  25.330  25.362
  50.13  25.330  25.362
  50.63  25.330  25.362
  51.13  25.330  25.547
  51.63  25.438  25.362
  52.13  25.330  25.362
  52.63  25.438  25.362
  53.13  25.330  25.547
  53.63  25.438  25.362
  54.13  25.438  25.176
  54.63  25.547  25.362
  55.13  25.547  25.732
  55.63  25.438  25.362
  56.13  25.547  25.176
  56.63  25.655  25.362
  57.13  25.438  25.547
  57.63  25.655  25.362
  58.13  25.547  25.176
  58.63  25.763  25.362
  59.13  25.763  25.732
  59.63  25.655  25.176
  60.13  25.655  25.362
  60.63  25.763  25.176
  61.13  25.763  25.176
  61.63  25.655  25.362
  62.13  25.655  25.176
  62.63  25.763  25.362
  63.13  25.655  25.176
  63.63  25.763  25.176
  64.13  25.871  25.176
  64.63  25.763  25.176
  65.13  25.763  25.362
  65.63  25.763  25.176
  66.13  25.763  25.176
  66.63  25.871  24.998
  67.13  25.871  25.176
  67.63  26.088  25.176
  68.13  25.871  25.176
  68.63  25.980  25.362
  69.13  25.980  24.998
  69.63  25.980  25.176
  70.13  25.980  24.998
  70.63  25.763  24.998
  71.13  26.088  24.998
  71.63  26.088  25.176
  72.13  25.980  25.176
  72.63  26.088  25.176
  73.13  25.980  24.998
  73.63  26.521  25.176
  74.13  26.088  25.176
  74.63  26.088  24.998
  75.13  26.196  25.176
  75.63  26.088  25.176
  76.13  26.088  25.176
  76.63  26.088  25.176
  77.13  26.304  24.998
  77.63  26.304  24.998
  78.13  26.196  24.998
  78.63  26.413  24.968
  79.13  26.304  25.176
  79.63  26.196  25.176
  80.13  26.304  25.176
  80.63  26.304  24.937
  81.13  26.304  24.968
  81.63  26.304  24.998
  82.13  26.413  24.998
  82.63  26.413  24.998
  83.13  26.413  24.998
  83.63  26.196  24.998
  84.13  26.413  24.968
  84.63  26.413  24.998
  85.13  26.413  24.968
  85.63  26.304  24.998
  86.13  26.304  24.998
  86.63  26.521  24.998
  87.13  26.413  24.968
  87.63  26.413  24.998
  88.13  26.629  24.968
  88.63  26.521  24.968
  89.13  26.629  24.998
  89.63  26.521  24.998
  90.13  26.521  24.968
  90.63  26.521  24.968
  91.13  26.737  24.968
  91.63  26.521  24.968
  92.13  26.521  24.937
  92.63  26.629  24.968
  93.13  26.629  24.968
  93.63  26.737  24.998
  94.13  26.629  24.937
  94.63  26.737  24.968
  95.13  26.737  24.968
  95.63  26.629  24.968
  96.13  26.737  24.998
  96.63  26.629  24.998
  97.13  26.629  24.968
  97.63  26.737  24.968
  98.13  26.954  24.998
  98.63  26.629  25.176
  99.13  26.846  24.968
  99.63  26.629  24.968
 100.13  26.846  24.968
 100.63  26.737  24.968
 101.13  26.954  24.968
 101.63  26.846  24.937
 102.13  26.846  24.937
 102.63  26.954  24.968
 103.13  26.846  24.937
 103.63  26.954  24.968
 104.13  26.846  24.937
 104.63  27.062  24.937
 105.13  27.062  24.937
 105.63  26.954  24.968
 106.13  26.954  24.906
 106.63  26.846  24.937
 107.13  26.954  24.968
 107.63  26.954  24.937
 108.13  27.062  24.937
 108.63  27.062  24.968
 109.13  27.170  24.937
 109.63  26.954  24.968
 110.13  27.062  24.937
 110.63  27.062  24.968
 111.13  27.170  24.937
 111.63  27.170  24.937
 112.13  27.170  24.937
 112.63  27.062  24.937
 113.13  27.279  24.937
 113.63  27.279  24.937
 114.13  27.279  24.937
 114.63  27.170  24.968
 115.13  27.170  24.937
 115.63  27.170  24.968
 116.13  27.170  24.875
 116.63  27.170  24.906
 117.13  27.279  24.968
 117.63  27.279  24.937
 118.13  27.170  24.906
 118.63  27.387  24.906
 119.13  27.170  24.937
 119.63  27.495  24.937
 120.13  27.279  24.937
 120.63  27.279  24.906
 121.13  27.387  24.937
 121.63  27.387  24.937
 122.13  27.170  24.968
 122.63  27.387  24.937
 123.13  27.170  24.906
 123.63  27.495  24.937
 124.13  27.603  24.937
 124.63  27.387  24.875
 125.13  27.495  24.998
 125.63  27.387  24.937
 126.13  27.495  24.906
 126.63  27.495  24.937
 127.13  27.495  24.937
 127.63  27.495  24.937
 128.13  27.495  24.937
 128.63  27.495  24.937
 129.13  27.495  24.906
 129.63  27.603  24.906
 130.13  27.495  24.906
 130.63  27.495  24.875
 131.13  27.603  24.937
 131.63  27.603  24.906
 132.13  27.603  24.906
 132.63  27.603  24.906
 133.13  27.603  24.906
 133.63  27.603  24.906
 134.13  27.712  24.906
 134.63  27.603  24.844
 135.13  27.712  24.875
 135.63  27.928  24.906
 136.13  27.712  24.906
 136.63  27.603  24.844
 137.13  27.820  24.906
 137.63  27.712  24.875
 138.13  27.712  24.906
 138.63  27.603  24.906
 139.13  27.820  24.906
 139.63  27.820  24.906
 140.13  27.820  24.906
 140.63  27.820  24.875
 141.13  27.712  24.906
 141.63  27.712  24.906
 142.13  27.820  24.906
 142.63  27.820  24.906
 143.13  27.820  24.875
 143.63  27.820  24.875
 144.13  27.928  24.875
 144.63  27.820  24.906
 145.13  27.820  24.875
 145.63  27.712  24.906
 146.13  27.712  24.875
 146.63  27.928  24.875
 147.13  27.820  24.875
 147.63  27.820  24.875
 148.13  27.928  24.875
 148.63  27.928  24.875
 149.13  27.928  24.875
 149.63  27.928  24.906
 150.13  27.928  24.875
 150.63  28.036  24.844
 151.13  27.928  24.906
 151.63  28.036  24.844
 152.13  28.145  24.906
 152.63  27.928  24.875
 153.13  27.928  24.875
 153.63  28.036  24.875
 154.13  28.145  24.875
 154.63  28.036  24.875
 155.13  27.928  24.906
 155.63  27.928  24.875
 156.13  28.036  24.906
 156.63  28.036  24.875
 157.13  28.145  24.875
 157.63  28.145  24.906
 158.13  28.145  24.875
 158.63  28.145  24.906
 159.13  28.145  24.875
 159.63  28.145  24.875
 160.13  28.145  24.875
 160.63  28.253  24.844
 161.13  28.145  24.844
 161.63  28.253  24.875
 162.13  28.253  24.814
 162.64  28.253  24.875
 163.14  28.253  24.906
 163.64  28.253  24.875
 164.14  28.145  24.875
 164.64  28.253  24.906
 165.14  28.253  24.875
 165.64  28.361  24.875
 166.14  28.361  24.875
 166.64  28.361  24.875
 167.14  28.361  24.844
 167.64  28.361  24.875
 168.14  28.361  24.875
 168.64  28.578  24.844
 169.14  28.361  24.875
 169.64  28.361  24.906
 170.14  28.361  24.844
 170.64  28.361  24.906
 171.14  28.361  24.844
 171.64  28.361  24.875
 172.14  28.361  24.844
 172.64  28.361  24.844
 173.14  28.469  24.844
 173.64  28.361  24.814
 174.14  28.469  24.844
 174.64  28.361  24.875
 175.14  28.361  24.814
 175.64  28.361  24.844
 176.14  28.469  24.875
 176.64  28.578  24.814
 177.14  28.578  24.844
 177.64  28.902  24.875
 178.14  28.578  24.875
 178.64  28.578  24.752
 179.14  28.578  24.844
 179.64  28.578  24.814
 180.14  28.469  24.875
 180.64  28.361  24.844
 181.14  28.578  24.844
 181.64  28.686  24.844
 182.14  28.902  24.814
 182.64  28.578  24.814
 183.14  28.686  24.844
 183.64  28.686  24.844
 184.14  28.578  24.814
 184.64  28.686  24.844
 185.14  28.686  24.844
 185.64  28.686  24.783
 186.14  28.794  24.844
 186.64  28.686  24.844
 187.14  28.686  24.814
 187.64  28.686  24.844
 188.14  28.686  24.844
 188.64  29.011  24.906
 189.14  28.794  24.844
 189.64  28.794  24.844
 190.14  28.902  24.783
 190.64  28.794  24.875
 191.14  28.902  24.814
 191.64  28.794  24.844
 192.14  28.902  24.875
 192.64  28.794  24.844
 193.14  28.902  24.844
 193.64  28.794  24.844
 194.14  28.902  24.844
 194.64  28.902  24.844
 195.14  28.902  24.844
 195.64  29.011  24.814
 196.14  28.902  24.814
 196.64  28.902  24.844
 197.14  28.902  24.814
 197.64  29.011  24.844
 198.14  28.794  24.814
 198.64  28.902  24.844
 199.14  29.011  24.844
 199.64  28.902  24.844
 200.14  29.119  24.844
 200.64  28.794  24.814
 201.14  29.011  24.844
 201.64  29.011  24.783
 202.14  28.902  24.814
 202.64  29.011  24.814
 203.14  29.011  24.814
 203.64  29.011  24.814
 204.14  29.011  24.783
 204.64  29.119  24.814
 205.14  29.011  24.875
 205.64  29.011  24.814
 206.14  29.119  24.814
 206.64  29.119  24.814
 207.14  29.119  25.547
 207.64  29.011  24.721
 208.14  29.227  24.783
 208.64  29.227  24.814
 209.14  29.119  24.783
 209.64  28.902  24.814
 210.14  29.227  24.814
 210.64  29.119  24.814
 211.14  29.227  24.814
 211.64  29.011  24.814
 212.14  29.227  24.814
 212.64  29.119  24.814
 213.14  29.227  24.814
 213.64  29.227  24.844
 214.14  29.227  24.814
 214.64  29.227  24.783
 215.14  29.335  24.814
 215.64  29.227  24.814
 216.14  29.227  24.783
 216.64  29.227  24.814
 217.14  29.335  24.814
 217.64  29.335  24.844
 218.14  29.227  24.783
 218.64  29.335  24.783
 219.14  29.444  24.783
 219.64  29.335  24.814
 220.14  29.335  24.783
 220.64  29.335  24.814
 221.14  29.444  24.814
 221.64  29.335  24.814
 222.14  29.119  24.783
 222.64  29.444  24.814
 223.14  29.444  24.783
 223.64  29.444  24.752
 224.14  29.444  24.783
 224.64  29.444  24.814
 225.14  29.444  24.814
 225.64  29.444  24.783
 226.14  29.335  24.783
 226.64  29.335  24.783
 227.14  29.335  24.783
 227.64  29.335  24.783
 228.14  29.444  24.783
 228.64  29.552  24.752
 229.14  29.444  24.783
 229.64  29.552  24.814
 230.14  29.444  24.783
 230.64  29.444  24.752
 231.14  29.552  24.783
 231.64  29.444  24.752
 232.14  29.552  24.814
 232.64  29.552  24.752
 233.14  29.552  24.783
 233.64  29.552  24.814
 234.14  29.552  24.752
 234.64  29.552  24.721
 235.14  29.552  24.783
 235.64  29.552  24.783
 236.14  29.444  24.783
 236.64  29.552  24.814
 237.14  29.552  24.783
 237.64  29.552  24.783
 238.14  29.444  24.783
 238.64  29.660  24.783
 239.14  29.660  24.752
 239.64  29.660  24.814
 240.14  29.768  24.783
 240.64  29.552  24.783
 241.14  29.985  24.783
 241.64  29.552  24.814
 242.14  29.552  24.783
 242.64  29.660  24.783
 243.14  29.552  24.752
 243.64  29.768  24.814
 244.14  29.660  24.783
 244.64  29.660  24.752
 245.14  29.552  24.783
 245.64  29.660  24.783
 246.14  29.768  24.752
 246.64  29.768  24.783
 247.14  29.768  24.752
 247.64  29.660  24.783
 248.14  29.768  24.752
 248.64  29.660  24.752
 249.14  29.768  24.783
 249.64  29.768  24.752
 250.14  29.768  24.783
 250.64  29.660  24.783
 251.14  29.877  24.783
 251.64  29.985  24.752
 252.14  29.985  24.783
 252.64  29.768  24.783
 253.14  29.768  24.783
 253.64  29.985  24.783
 254.14  29.877  24.783
 254.64  30.217  24.783
 255.14  29.877  24.752
 255.64  29.985  24.752
 256.14  29.877  24.752
 256.64  29.877  24.783
 257.14  29.985  24.783
 257.64  29.877  24.783
 258.14  29.768  24.783
 258.64  29.985  24.752
 259.14  29.877  24.783
 259.64  30.101  24.814
 260.14  30.101  24.814
 260.64  29.985  24.783
 261.14  29.985  24.752
 261.64  29.877  24.844
 262.14  29.985  24.783
 262.64  29.877  24.752
 263.14  29.985  24.752
 263.64  29.985  24.752
 264.14  29.985  24.752
 264.64  29.985  24.752
 265.14  30.101  24.783
 265.64  30.101  24.721
 266.14  29.985  24.752
 266.64  29.985  24.783
 267.14  29.985  24.783
 267.64  30.217  24.783
 268.14  30.101  24.752
 268.64  30.101  24.721
 269.14  30.101  24.752
 269.64  30.101  24.752
 270.14  30.101  24.752
 270.64  30.101  24.752
 271.14  30.101  24.752
 271.64  30.101  24.752
 272.14  30.101  24.752
 272.64  30.217  24.752
 273.14  30.217  24.721
 273.64  30.101  24.752
 274.14  30.217  24.752
 274.64  30.217  24.752
 275.14  30.217  24.721
 275.64  30.217  24.752
 276.15  30.101  24.690
 276.65  30.334  24.752
 277.15  30.217  24.783
 277.65  30.334  24.752
 278.15  30.334  24.752
 278.65  30.334  24.752
 279.15  30.334  24.752
 279.65  30.334  24.752
 280.15  30.334  24.752
 280.65  30.217  24.752
 281.15  30.217  24.783
 281.65  30.217  24.752
 282.15  30.568  24.721
 282.65  30.217  24.752
 283.15  30.217  24.752
 283.65  30.334  24.752
 284.15  30.334  24.752
 284.65  30.217  24.752
 285.15  30.451  24.752
 285.65  30.568  24.721
 286.15  30.217  24.783
 286.65  30.451  24.752
 287.15  30.451  24.783
 287.65  30.334  24.721
 288.15  30.451  24.721
 288.65  30.568  24.721
 289.15  30.451  24.721
 289.65  30.451  24.752
 290.15  30.568  24.752
 290.65  30.568  24.721
 291.15  30.451  24.721
 291.65  30.334  24.752
 292.15  30.568  24.752
 292.65  30.451  24.752
 293.15  30.451  24.752
 293.65  30.334  24.752
 294.15  30.568  24.721
 294.65  30.568  24.752
 295.15  30.451  24.752
 295.65  30.568  24.690
 296.15  30.568  24.721
 296.65  30.451  24.752
 297.15  30.568  24.752
 297.65  30.451  24.721
 298.15  30.568  24.752
 298.65  30.568  24.752
 299.15  30.451  24.721
 299.65  30.685  24.690
 300.15  30.685  24.752
 300.65  30.568  24.752
 301.15  30.568  24.721
 301.65  30.568  24.721
 302.15  30.685  24.721
 302.65  30.568  24.721
 303.15  30.568  24.752
 303.65  30.802  24.721
 304.15  30.685  24.752
 304.65  30.802  24.752
 305.15  30.685  24.752
 305.65  30.568  24.721
 306.15  30.685  24.721
 306.65  30.685  24.752
 307.15  30.685  24.721
 307.65  30.685  24.721
 308.15  30.685  24.721
 308.65  30.685  24.721
 309.15  30.685  24.752
 309.65  30.802  24.721
 310.15  30.568  24.721
 310.65  30.802  24.721
 311.15  30.685  24.721
 311.65  30.919  24.721
 312.15  30.685  24.721
 312.65  30.802  24.690
 313.15  30.685  24.721
 313.65  30.802  24.721
 314.15  30.802  24.721
 314.65  30.685  24.752
 315.15  30.802  24.690
 315.65  30.685  24.752
 316.15  30.919  24.721
 316.65  30.802  24.752
 317.15  30.802  24.721
 317.65  30.802  24.690
 318.15  30.802  24.721
 318.65  30.802  24.721
 319.15  30.802  24.721
 319.65  30.802  24.690
 320.15  30.685  24.721
 320.65  30.919  24.690
 321.15  30.919  24.721
 321.65  30.919  24.690
 322.15  30.919  24.690
 322.65  30.919  24.721
 323.15  30.919  24.752
 323.65  30.919  24.690
 324.15  30.919  24.690
 324.65  30.919  24.721
 325.15  31.036  24.660
 325.65  31.269  24.752
 326.15  30.919  24.690
 326.65  30.919  24.721
 327.15  30.919  24.721
 327.65  31.036  24.660
 328.15  30.919  24.690
 328.65  30.919  24.690
 329.15  31.036  24.690
 329.65  30.802  24.690
 330.15  31.036  24.721
 330.65  31.036  24.690
 331.15  31.036  24.690
 331.65  30.919  24.690
 332.15  30.919  24.690
 332.65  31.036  24.721
 333.15  30.919  24.690
 333.65  30.919  24.752
 334.15  31.036  24.660
 334.65  31.036  24.690
 335.15  31.152  24.690
 335.65  31.036  24.721
 336.15  30.919  24.690
 336.65  31.036  24.721
 337.15  31.152  24.660
 337.65  31.036  24.660
 338.15  31.152  24.690
 338.65  31.036  24.752
 339.15  31.152  24.690
 339.65  31.036  24.690
 340.15  31.152  24.690
 340.65  31.152  24.690
 341.15  31.152  24.690
 341.65  31.036  24.690
 342.15  31.152  24.660
 342.65  31.152  24.690
 343.15  31.152  24.660
 343.65  31.152  24.690
 344.15  31.152  24.690
 344.65  31.152  24.660
 345.15  31.036  24.690
 345.65  31.152  24.721
 346.15  31.036  24.690
 346.65  31.152  24.690
 347.15  31.269  24.721
 347.65  31.152  24.690
 348.15  31.152  24.660
 348.65  31.269  24.690
 349.15  31.152  24.690
 349.65  31.152  24.660
 350.15  31.269  24.690
 350.65  31.269  24.690
 351.15  31.386  24.690
 351.65  31.269  24.690
 352.15  31.386  24.690
 352.65  31.152  24.660
 353.15  31.152  24.660
 353.65  31.269  24.721
 354.15  31.269  24.721
 354.65  31.152  24.660
 355.15  31.269  24.783
 355.65  31.269  24.721
 356.15  31.269  24.690
 356.65  31.386  24.690
 357.15  31.269  24.690
 357.65  31.269  24.690
 358.15  31.269  24.690
 358.65  31.269  24.721
 359.15  31.386  24.690
 359.65  31.503  24.690
 360.15  31.269  24.690
 360.65  31.269  24.690
 361.15  31.386  24.660
 361.65  31.386  24.690
 362.15  31.620  24.690
 362.65  31.269  24.690
 363.15  31.386  24.690
 363.65  31.269  24.690
 364.15  31.503  24.660
 364.65  31.386  24.660
 365.15  31.386  24.690
 365.65  31.386  24.690
 366.15  31.386  24.690
 366.65  31.386  24.690
 367.15  31.503  24.690
 367.65  31.503  24.690
 368.15  31.503  24.660
 368.65  31.620  24.660
 369.15  31.386  24.690
 369.65  31.971  24.690
 370.15  31.386  24.690
 370.65  31.503  24.660
 371.15  31.503  24.660
 371.65  31.503  24.690
 372.15  31.503  24.690
 372.65  31.620  24.660
 373.15  31.503  24.721
 373.65  31.854  24.690
 374.15  31.620  24.660
 374.65  31.503  24.690
 375.15  31.503  24.690
 375.65  31.503  24.629
 376.15  31.503  24.660
 376.65  31.503  24.598
 377.15  31.737  24.629
 377.65  31.503  24.660
 378.15  31.503  24.629
 378.65  31.620  24.660
 379.15  31.503  24.629
 379.65  31.503  24.660
 380.15  31.503  24.660
 380.65  31.620  24.660
 381.15  31.620  24.660
 381.65  31.620  24.660
 382.15  31.503  24.660
 382.65  31.503  24.690
 383.15  31.620  24.660
 383.65  31.503  24.660
 384.15  31.737  24.660
 384.65  31.737  24.660
 385.15  31.620  24.660
 385.65  31.854  24.690
 386.15  31.620  24.660
 386.65  31.737  24.660
 387.15  31.620  24.660
 387.65  31.620  24.660
 388.15  31.620  24.629
 388.65  31.737  24.629
 389.16  31.737  24.660
 389.66  31.503  24.660
 390.16  31.620  24.660
 390.66  31.737  24.660
 391.16  31.737  24.660
 391.66  31.620  24.660
 392.16  31.737  24.660
 392.66  31.620  24.660
 393.16  31.737  24.660
 393.66  31.503  24.629
 394.16  31.737  24.660
 394.66  31.620  24.629
 395.16  31.737  24.629
 395.66  31.737  24.660
 396.16  31.737  24.660
 396.66  31.620  24.629
 397.16  31.620  24.629
 397.66  31.971  24.629
 398.16  31.737  24.660
 398.66  31.737  24.629
 399.16  31.737  24.660
 399.66  31.737  24.629
 400.16  31.737  24.660
 400.66  31.854  24.629
 401.16  31.737  24.660
 401.66  31.854  24.690
 402.16  31.971  24.629
 402.66  31.854  24.660
 403.16  31.971  24.629
 403.66  31.854  24.660
 404.16  31.854  24.690
 404.66  31.854  24.660
 405.16  31.854  24.660
 405.66  31.971  24.660
 406.16  31.737  24.660
 406.66  31.854  24.690
 407.16  31.971  24.660
 407.66  31.971  24.660
 408.16  31.854  24.660
 408.66  31.971  24.629
 409.16  31.854  24.660
 409.66  32.087  24.660
 410.16  31.971  24.660
 410.66  31.971  24.660
 411.16  31.971  24.629
 411.66  31.971  24.629
 412.16  31.971  24.660
 412.66  31.971  24.660
 413.16  31.971  24.629
 413.66  31.854  24.690
 414.16  32.087  24.660
 414.66  31.971  24.690
 415.16  31.971  24.690
 415.66  32.087  24.660
 416.16  31.971  24.629
 416.66  31.971  24.660
 417.16  31.971  24.690
 417.66  31.971  24.629
 418.16  32.087  24.629
 418.66  31.971  24.629
 419.16  31.971  24.629
 419.66  32.087  24.629
 420.16  32.087  24.629
 420.66  32.087  24.660
 421.16  32.087  24.660
 421.66  32.087  24.660
 422.16  32.087  24.660
 422.66  32.204  24.660
 423.16  31.971  24.629
 423.66  32.087  24.629
 424.16  32.204  24.629
 424.66  31.971  24.629
 425.16  32.087  24.629
 425.66  32.087  24.629
 426.16  31.971  24.660
 426.66  32.204  24.629
 427.16  32.087  24.690
 427.66  32.204  24.629
 428.16  31.971  24.629
 428.66  32.087  24.660
 429.16  32.087  24.629
 429.66  31.971  24.629
 430.16  32.087  24.660
 430.66  32.204  24.721
 431.16  32.204  24.629
 431.66  32.087  24.629
 432.16  32.204  24.660
 432.66  32.087  24.598
 433.16  32.204  24.690
 433.66  32.204  24.629
 434.16  32.204  24.629
 434.66  32.087  24.629
 435.16  32.204  24.629
 435.66  32.087  24.660
 436.16  32.321  24.629
 436.66  32.204  24.598
 437.16  32.204  24.660
 437.66  32.087  24.660
 438.16  32.204  24.660
 438.66  32.204  24.660
 439.16  32.087  24.660
 439.66  32.204  24.629
 440.16  32.321  24.629
 440.66  32.204  24.598
 441.16  32.438  24.629
 441.66  32.204  24.629
 442.16  32.321  24.629
 442.66  32.321  24.598
 443.16  32.321  24.660
 443.66  32.321  24.629
 444.16  32.321  24.660
 444.66  32.204  24.629
 445.16  32.321  24.629
 445.66  32.321  24.660
 446.16  32.321  24.629
 446.66  32.204  24.629
 447.16  32.321  24.598
 447.66  32.321  24.629
 448.16  32.321  24.629
 448.66  32.438  24.629
 449.16  32.438  24.660
 449.66  32.438  24.660
 450.16  32.555  24.629
 450.66  32.321  24.598
 451.16  32.321  24.629
 451.66  32.438  24.660
 452.16  32.438  24.629
 452.66  32.321  24.629
 453.16  32.321  24.629
 453.66  32.555  24.598
 454.16  32.321  24.629
 454.66  32.321  24.629
 455.16  32.438  24.690
 455.66  32.321  24.629
 456.16  32.438  24.660
 456.66  32.321  24.629
 457.16  32.555  24.629
 457.66  32.438  24.629
 458.16  32.438  24.629
 458.66  32.555  24.629
 459.16  32.555  24.598
 459.66  32.672  24.660
 460.16  32.555  24.629
 460.66  32.438  24.629
 461.16  32.555  24.629
 461.66  32.438  24.629
 462.16  32.555  24.660
 462.66  32.555  24.629
 463.16  32.438  24.629
 463.66  32.555  24.598
 464.16  32.438  24.629
 464.66  32.438  24.629
 465.16  32.438  24.598
 465.66  32.555  24.629
 466.16  32.555  24.629
 466.66  32.672  24.629
 467.16  32.555  24.660
 467.66  32.789  24.660
 468.16  32.672  24.629
 468.66  32.672  24.629
 469.16  32.555  24.598
 469.66  32.555  24.629
 470.16  32.672  24.660
 470.66  32.672  24.660
 471.16  32.672  24.598
 471.66  32.438  24.598
 472.16  32.789  24.629
 472.66  32.906  24.629
 473.16  32.789  24.598
 473.66  32.672  24.629
 474.16  32.672  24.629
 474.66  32.672  24.629
 475.16  32.672  24.629
 475.66  32.672  24.629
 476.16  32.672  24.598
 476.66  32.672  24.629
 477.16  32.672  24.660
 477.66  32.672  24.567
 478.16  32.672  24.598
 478.66  32.672  24.629
 479.16  32.789  24.598
 479.66  32.672  24.660
 480.16  32.789  24.629
 480.66  32.789  24.598
 481.16  32.672  24.629
 481.66  32.555  24.629
 482.16  32.672  24.598
 482.66  32.789  24.629
 483.16  32.789  24.629
 483.66  32.672  24.598
 484.16  32.672  24.629
 484.66  32.789  24.629
 485.16  32.789  24.598
 485.66  32.789  24.598
 486.16  32.789  24.598
 486.66  32.555  24.629
 487.16  32.672  24.629
 487.66  32.672  24.629
 488.16  32.555  24.598
 488.66  32.672  24.629
 489.16  32.672  24.629
 489.66  32.789  24.629
 490.16  32.906  24.598
 490.66  32.906  24.598
 491.17  32.672  24.567
 491.67  32.789  24.629
 492.17  32.672  24.629
 492.67  32.789  24.598
 493.17  32.906  24.598
 493.67  32.789  24.598
 494.17  32.906  24.629
 494.67  33.022  24.629
 495.17  32.789  24.598
 495.67  32.789  24.629
 496.17  32.789  24.598
 496.67  32.789  24.629
 497.17  33.022  24.598
 497.67  32.672  24.598
 498.17  32.906  24.598
 498.67  32.789  24.629
 499.17  32.789  24.598
 499.67  32.789  24.567
 500.17  32.789  24.629
 500.67  32.789  24.567
 501.17  32.906  24.598
 501.67  32.906  24.598
 502.17  32.789  24.598
 502.67  32.906  24.598
 503.17  32.906  24.660
 503.67  33.022  24.598
 504.17  32.906  24.629
 504.67  32.906  24.598
 505.17  32.906  24.567
 505.67  32.789  24.567
 506.17  32.789  24.567
 506.67  32.906  24.598
 507.17  32.789  24.598
 507.67  33.139  24.660
 508.17  32.906  24.629
 508.67  33.022  24.598
 509.17  33.022  24.629
 509.67  32.906  24.629
 510.17  32.906  24.598
 510.67  32.789  24.629
 511.17  33.022  24.598
 511.67  32.906  24.567
 512.17  33.022  24.598
 512.67  32.906  24.598
 513.17  33.022  24.629
 513.67  33.373  24.629
 514.17  33.022  24.629
 514.67  32.906  24.598
 515.17  33.022  24.629
 515.67  32.906  24.598
 516.17  32.906  24.598
 516.67  33.022  24.567
 517.17  32.789  24.629
 517.67  32.906  24.567
 518.17  32.906  24.567
 518.67  33.022  24.598
 519.17  32.906  24.567
 519.67  33.139  24.629
 520.17  33.139  24.598
 520.67  33.022  24.598
 521.17  32.906  24.598
 521.67  33.022  24.598
 522.17  32.906  24.660
 522.67  33.022  24.598
 523.17  33.022  24.629
 523.67  33.022  24.629
 524.17  33.022  24.567
 524.67  33.022  24.629
 525.17  33.139  24.629
 525.67  33.256  24.629
 526.17  33.022  24.598
 526.67  33.022  24.629
 527.17  33.139  24.629
 527.67  33.022  24.567
 528.17  33.139  24.629
 528.67  33.139  24.598
 529.17  33.256  24.598
 529.67  33.139  24.567
 530.17  33.022  24.629
 530.67  33.139  24.629
 531.17  33.139  24.598
 531.67  33.139  24.598
 532.17  33.139  24.629
 532.67  33.139  24.629
 533.17  32.906  24.598
 533.67  33.022  24.598
 534.17  33.256  24.598
 534.67  33.139  24.598
 535.17  33.139  24.598
 535.67  33.139  24.598
 536.17  33.256  24.598
 536.67  33.139  24.598
 537.17  33.139  24.598
 537.67  33.256  24.567
 538.17  33.139  24.598
 538.67  33.139  24.598
 539.17  33.139  24.598
 539.67  33.256  24.660
 540.17  33.373  24.598
 540.67  33.256  24.567
 541.17  33.256  24.598
 541.67  33.256  24.598
 542.17  33.256  24.598
 542.67  33.022  24.567
 543.17  33.139  24.598
 543.67  33.256  24.598
 544.17  33.256  24.567
 544.67  33.256  24.629
 545.17  33.139  24.598
 545.67  33.256  24.567
 546.17  33.256  24.567
 546.67  33.256  24.567
 547.17  33.256  24.598
 547.67  33.373  24.598
 548.17  33.256  24.567
 548.67  33.256  24.567
 549.17  33.139  24.567
 549.67  33.373  24.536
 550.17  33.139  24.567
 550.67  33.256  24.567
 551.17  33.373  24.567
 551.67  33.256  24.598
 552.17  33.139  24.567
 552.67  33.139  24.567
 553.17  33.957  24.567
 553.67  33.373  24.567
 554.17  33.373  24.598
 554.67  33.256  24.598
 555.17  33.373  24.690
 555.67  33.373  24.567
 556.17  33.373  24.567
 556.67  33.373  24.598
 557.17  33.373  24.567
 557.67  33.373  24.536
 558.17  33.256  24.567
 558.67  33.373  24.567
 559.17  33.373  24.629
 559.67  33.139  24.629
 560.17  33.373  24.567
 560.67  33.139  24.629
 561.17  33.373  24.598
 561.67  33.373  24.598
 562.17  33.373  24.598
 562.67  33.373  24.598
 563.17  33.373  24.598
 563.67  33.373  24.567
 564.17  33.490  24.598
 564.67  33.373  24.598
 565.17  33.607  24.598
 565.67  33.373  24.598
 566.17  33.373  24.536
 566.67  33.373  24.567
 567.17  33.490  24.598
 567.67  33.490  24.598
 568.17  33.373  24.567
 568.67  33.373  24.567
 569.17  33.373  24.598
 569.67  33.490  24.567
 570.17  33.490  24.598
 570.67  33.373  24.598
 571.17  33.373  24.536
 571.67  33.373  24.567
 572.17  33.256  24.536
 572.67  33.373  24.536
 573.17  33.373  24.598
 573.67  33.490  24.567
 574.17  33.490  24.598
 574.67  33.490  24.536
 575.17  33.490  24.598
 575.67  33.490  24.598
 576.17  33.490  24.598
 576.67  33.490  24.567
 577.17  33.490  24.567
 577.67  33.256  24.567
 578.17  33.490  24.567
 578.67  33.373  24.598
 579.17  33.490  24.536
 579.67  33.373  24.536
 580.17  33.256  24.567
 580.67  33.490  24.567
 581.17  33.256  24.536
 581.67  33.490  24.567
 582.17  33.490  24.536
 582.67  33.490  24.598
 583.17  33.490  24.567
 583.67  33.490  24.598
 584.17  33.490  24.536
 584.67  33.490  24.567
 585.17  33.607  24.567
 585.67  33.724  24.567
 586.17  33.490  24.567
 586.67  33.607  24.567
 587.17  33.607  24.598
 587.67  33.607  24.567
 588.17  33.724  24.567
 588.67  33.724  24.598
 589.17  33.724  24.567
 589.67  33.724  24.567
 590.17  33.607  24.598
 590.67  33.490  24.567
 591.17  33.607  24.567
 591.67  33.607  24.567
 592.17  33.607  24.567
 592.67  33.490  24.567
 593.17  33.607  24.567
 593.67  33.607  24.536
 594.17  33.607  24.567
 594.67  33.490  24.536
 595.17  33.724  24.567
 595.67  33.490  24.567
 596.17  33.724  24.567
 596.67  33.607  24.567
 597.17  33.607  24.567
 597.67  33.724  24.567
 598.17  33.841  24.598
 598.67  33.490  24.567
 599.17  33.607  24.567
 599.67  33.724  24.598
 600.17  33.724  24.598
 600.67  33.724  24.536
 601.17  33.724  24.506
 601.67  33.724  24.567
 602.17  33.724  24.567
 602.67  33.841  24.567
 603.17  33.724  24.598
 603.67  33.607  24.598
 604.17  33.724  24.567
 604.67  33.607  24.567
 605.17  33.724  24.567
 605.67  33.724  24.567
 606.17  33.607  24.536
 606.67  33.607  24.567
 607.17  33.607  24.567
 607.67  33.841  24.567
 608.17  33.724  24.567
 608.67  33.724  24.567
 609.17  33.607  24.567
 609.67  33.607  24.567
 610.17  33.841  24.567
 610.67  33.724  24.536
 611.17  33.724  24.536
 611.67  33.607  24.567
 612.17  33.724  24.567
 612.67  33.841  24.567
 613.17  33.607  24.567
 613.67  33.957  24.536
 614.17  33.724  24.567
 614.67  33.724  24.567
 615.18  33.724  24.536
 615.68  33.607  24.536
 616.18  33.841  24.567
 616.68  33.607  24.536
 617.18  33.724  24.598
 617.68  33.724  24.536
 618.18  33.957  24.598
 618.68  33.724  24.536
 619.18  33.841  24.567
 619.68  33.724  24.567
 620.18  33.724  24.567
 620.68  33.724  24.567
 621.18  33.724  24.567
 621.68  33.841  24.567
 622.18  33.724  24.567
 622.68  33.724  24.567
 623.18  33.841  24.567
 623.68  33.841  24.536
 624.18  33.724  24.536
 624.68  33.841  24.567
 625.18  33.957  24.536
 625.68  33.841  24.567
 626.18  33.841  24.536
 626.68  33.841  24.567
 627.18  33.957  24.567
 627.68  33.841  24.598
 628.18  33.841  24.567
 628.68  33.957  24.567
 629.18  33.841  24.567
 629.68  33.841  24.536
 630.18  33.841  24.567
 630.68  33.841  24.567
 631.18  33.841  24.567
 631.68  33.957  24.598
 632.18  33.841  24.536
 632.68  33.841  24.536
 633.18  34.074  24.567
 633.68  33.957  24.536
 634.18  33.957  24.536
 634.68  33.841  24.567
 635.18  33.841  24.567
 635.68  34.074  24.567
 636.18  33.957  24.536
 636.68  34.074  24.567
 637.18  33.841  24.536
 637.68  34.074  24.536
 638.18  33.841  24.598
 638.68  33.841  24.598
 639.18  33.957  24.567
 639.68  33.957  24.567
 640.18  33.724  24.567
 640.68  33.957  24.567
 641.18  33.957  24.536
 641.68  33.957  24.567
 642.18  33.957  24.598
 642.68  33.957  24.536
 643.18  33.957  24.567
 643.68  33.957  24.536
 644.18  33.957  24.536
 644.68  33.957  24.536
 645.18  33.841  24.536
 645.68  33.957  24.567
 646.18  33.957  24.536
 646.68  33.957  24.598
 647.18  33.957  24.536
 647.68  33.957  24.567
 648.18  33.957  24.536
 648.68  33.841  24.567
 649.18  33.957  24.567
 649.68  33.841  24.536
 650.18  33.957  24.536
 650.68  34.074  24.506
 651.18  34.074  24.536
 651.68  33.957  24.506
 652.18  33.957  24.506
 652.68  33.957  24.536
 653.18  34.074  24.536
 653.68  33.957  24.536
 654.18  33.957  24.536
 654.68  33.957  24.536
 655.18  34.191  24.567
 655.68  34.074  24.536
 656.18  34.074  24.536
 656.68  33.957  24.506
 657.18  34.074  24.536
 657.68  34.074  24.567
 658.18  34.074  24.536
 658.68  33.957  24.506
 659.18  33.957  24.536
 659.68  34.074  24.536
 660.18  34.074  24.536
 660.68  34.191  24.536
 661.18  34.074  24.536
 661.68  34.191  24.506
 662.18  34.074  24.567
 662.68  33.957  24.536
 663.18  34.074  24.567
 663.68  33.957  24.506
 664.18  34.074  24.536
 664.68  34.074  24.536
 665.18  34.074  24.536
 665.68  34.074  24.536
 666.18  34.425  24.536
 666.68  34.074  24.567
 667.18  34.074  24.536
 667.68  34.074  24.506
 668.18  34.191  24.536
 668.68  34.074  24.536
 669.18  34.074  24.598
 669.68  34.074  24.536
 670.18  34.191  24.536
 670.68  34.074  24.536
 671.18  34.074  24.536
 671.68  34.074  24.536
 672.18  34.308  24.536
 672.68  34.074  24.567
 673.18  34.074  24.567
 673.68  34.191  24.506
 674.18  34.074  24.536
 674.68  34.191  24.506
 675.18  34.191  24.567
 675.68  34.191  24.536
 676.18  34.191  24.536
 676.68  34.074  24.567
 677.18  34.191  24.536
 677.68  34.191  24.536
 678.18  34.191  24.536
 678.68  34.191  24.536
 679.18  34.308  24.536
 679.68  34.191  24.567
 680.18  34.308  24.536
 680.68  34.308  24.567
 681.18  34.191  24.536
 681.68  34.308  24.567
 682.18  34.425  24.536
 682.68  34.191  24.536
 683.18  34.308  24.536
 683.68  34.191  24.536
 684.18  33.957  24.536
 684.68  34.191  24.567
 685.18  34.074  24.536
 685.68  34.191  24.536
 686.18  34.191  24.536
 686.68  34.191  24.536
 687.18  34.308  24.567
 687.68  34.308  24.567
 688.18  34.308  24.536
 688.68  34.308  24.567
 689.18  34.308  24.536
 689.68  34.308  24.567
 690.18  34.191  24.536
 690.68  34.191  24.536
 691.18  34.308  24.536
 691.68  34.191  24.536
 692.18  34.074  24.536
 692.68  34.308  24.536
 693.18  34.074  24.567
 693.68  34.074  24.475
 694.18  34.308  24.536
 694.68  34.191  24.536
 695.18  34.191  24.536
 695.68  34.308  24.536
 696.18  34.308  24.567
 696.68  34.191  24.567
 697.18  34.308  24.536
 697.68  34.308  24.536
 698.18  34.425  24.536
 698.68  34.308  24.506
 699.18  34.308  24.536
 699.68  34.308  24.536
 700.18  34.308  24.536
 700.68  34.308  24.536
 701.18  34.191  24.536
 701.68  34.308  24.506
 702.18  34.425  24.536
 702.68  34.308  24.506
 703.18  34.425  24.567
 703.68  34.425  24.506
 704.18  34.308  24.536
 704.68  34.425  24.567
 705.18  34.308  24.536
 705.68  34.308  24.536
 706.18  34.308  24.536
 706.68  34.308  24.536
 707.18  34.542  24.536
 707.68  34.425  24.536
 708.18  34.425  24.536
 708.68  34.308  24.536
 709.18  34.308  24.536
 709.68  34.191  24.536
 710.18  34.425  24.506
 710.68  34.308  24.506
 711.18  34.425  24.536
 711.68  34.308  24.536
 712.18  34.542  24.536
 712.68  34.308  24.506
 713.18  34.542  24.351
 713.68  34.425  24.536
 714.18  34.308  24.536
 714.68  34.425  24.536
 715.18  34.308  24.536
 715.68  34.191  24.506
 716.18  34.425  24.536
 716.68  34.425  24.536
 717.18  34.425  24.567
 717.68  34.425  24.536
 718.18  34.308  24.506
 718.68  34.425  24.536
 719.18  34.425  24.536
 719.68  34.425  24.536
 720.18  34.425  24.506
 720.68  34.425  24.536
 721.18  34.425  24.536
 721.68  34.425  24.506
 722.18  34.542  24.506
 722.68  34.425  24.536
 723.18  34.542  24.506
 723.68  34.542  24.506
 724.18  34.425  24.536
 724.68  34.542  24.536
 725.18  34.425  24.506
 725.68  34.425  24.475
 726.18  34.425  24.506
 726.68  34.425  24.536
 727.18  34.425  24.506
 727.68  34.542  24.536
 728.18  34.659  24.506
 728.69  34.542  24.506
 729.19  34.425  24.475
 729.69  34.425  24.536
 730.19  34.542  24.536
 730.69  34.542  24.567
 731.19  34.542  24.536
 731.69  34.542  24.506
 732.19  34.425  24.567
 732.69  34.542  24.506
 733.19  34.542  24.506
 733.69  34.425  24.506
 734.19  34.425  24.475
 734.69  34.542  24.598
 735.19  34.542  24.536
 735.69  34.542  24.506
 736.19  34.425  24.506
 736.69  34.308  24.536
 737.19  34.425  24.506
 737.69  34.425  24.506
 738.19  34.425  24.506
 738.69  34.425  24.506
 739.19  34.308  24.536
 739.69  34.425  24.506
 740.19  34.425  24.475
 740.69  34.425  24.536
 741.19  34.542  24.536
 741.69  34.542  24.567
 742.19  34.542  24.506
 742.69  34.425  24.506
 743.19  34.425  24.536
 743.69  34.542  24.567
 744.19  34.659  24.506
 744.69  34.659  24.475
 745.19  34.542  24.506
 745.69  34.542  24.536
 746.19  34.659  24.567
 746.69  34.659  24.506
 747.19  34.659  24.536
 747.69  34.659  24.536
 748.19  34.542  24.506
 748.69  34.425  24.536
 749.19  34.659  24.506
 749.69  34.659  24.506
 750.19  34.659  24.506
 750.69  34.542  24.506
 751.19  34.542  24.567
 751.69  34.659  24.536
 752.19  34.659  24.475
 752.69  34.659  24.506
 753.19  34.659  24.506
 753.69  34.659  24.536
 754.19  34.776  24.567
 754.69  34.659  24.536
 755.19  34.659  24.506
 755.69  34.659  24.536
 756.19  34.776  24.567
 756.69  34.659  24.536
 757.19  34.659  24.536
 757.69  34.659  24.536
 758.19  34.776  24.536
 758.69  34.659  24.506
 759.19  34.659  24.506
 759.69  34.659  24.506
 760.19  34.659  24.506
 760.69  34.659  24.536
 761.19  34.776  24.536
 761.69  34.659  24.506
 762.19  34.659  24.536
 762.69  34.542  24.506
 763.19  34.542  24.475
 763.69  34.776  24.536
 764.19  34.659  24.536
 764.69  34.542  24.536
 765.19  34.659  24.506
 765.69  34.659  24.506
 766.19  34.659  24.506
 766.69  34.892  24.536
 767.19  34.659  24.506
 767.69  34.659  24.536
 768.19  34.659  24.536
 768.69  34.776  24.506
 769.19  34.776  24.506
 769.69  34.776  24.475
 770.19  34.659  24.506
 770.69  34.659  24.506
 771.19  34.776  24.506
 771.69  34.776  24.567
 772.19  34.659  24.506
 772.69  34.659  24.506
 773.19  34.659  24.536
 773.69  34.776  24.506
 774.19  34.659  24.506
 774.69  34.776  24.536
 775.19  34.776  24.506
 775.69  34.776  24.536
 776.19  34.776  24.506
 776.69  34.776  24.506
 777.19  34.892  24.475
 777.69  34.776  24.506
 778.19  34.776  24.536
 778.69  34.776  24.506
 779.19  34.776  24.506
 779.69  34.776  24.506
 780.19  34.892  24.536
 780.69  34.776  24.506
 781.19  34.776  24.506
 781.69  34.776  24.506
 782.19  34.892  24.475
 782.69  34.659  24.536
 783.19  34.892  24.536
 783.69  34.892  24.506
 784.19  34.776  24.506
 784.69  34.776  24.506
 785.19  34.892  24.475
 785.69  34.776  24.536
 786.19  34.659  24.506
 786.69  34.776  24.506
 787.19  34.776  24.506
 787.69  34.892  24.506
 788.19  34.659  24.536
 788.69  34.892  24.475
 789.19  34.892  24.536
 789.69  34.776  24.567
 790.19  34.892  24.506
 790.69  34.892  24.536
 791.19  34.892  24.536
 791.69  34.776  24.536
 792.19  35.069  24.506
 792.69  34.892  24.506
 793.19  34.892  24.536
 793.69  34.776  24.536
 794.19  34.892  24.506
 794.69  34.892  24.506
 795.19  34.892  24.536
 795.69  34.892  24.506
 796.19  34.892  24.506
 796.69  34.892  24.567
 797.19  34.892  24.506
 797.69  34.892  24.506
 798.19  34.892  24.506
 798.69  34.892  24.506
 799.19  34.776  24.567
 799.69  34.776  24.506
 800.19  34.892  24.506
 800.69  35.005  24.506
 801.19  34.776  24.506
 801.69  34.892  24.506
 802.19  34.892  24.475
 802.69  34.776  24.536
 803.19  35.005  24.475
 803.69  35.005  24.506
 804.19  34.892  24.506
 804.69  34.776  24.506
 805.19  35.005  24.506
 805.69  34.892  24.506
 806.19  35.069  24.506
 806.69  34.892  24.506
 807.19  34.892  24.506
 807.69  34.892  24.506
 808.19  34.892  24.536
 808.69  34.659  24.475
 809.19  34.892  24.475
 809.69  34.892  24.506
 810.19  34.892  24.506
 810.69  34.892  24.506
 811.19  34.892  24.506
 811.69  35.005  24.506
 812.19  34.892  24.506
 812.69  34.892  24.506
 813.19  35.005  24.506
 813.69  34.892  24.536
 814.19  34.892  24.506
 814.69  34.892  24.506
 815.19  34.776  24.506
 815.69  34.892  24.475
 816.19  34.892  24.506
 816.69  34.776  24.506
 817.19  35.069  24.506
 817.69  34.892  24.506
 818.19  34.892  24.536
 818.69  34.892  24.506
 819.19  34.892  24.506
 819.69  34.892  24.536
 820.19  34.892  24.506
 820.69  35.005  24.475
 821.19  35.005  24.536
 821.69  35.005  24.506
 822.19  35.005  24.506
 822.69  35.005  24.506
 823.19  35.005  24.536
 823.69  35.005  24.506
 824.19  35.005  24.506
 824.69  34.892  24.506
 825.19  34.892  24.506
 825.69  35.005  24.536
 826.19  34.892  24.506
 826.69  35.197  24.536
 827.19  34.892  24.506
 827.69  35.069  24.506
 828.19  35.069  24.536
 828.69  35.005  24.536
 829.19  35.069  24.475
 829.69  35.005  24.506
 830.19  34.892  24.475
 830.70  35.005  24.475
 831.20  35.005  24.506
 831.70  35.005  24.506
 832.20  35.133  24.506
 832.70  35.005  24.506
 833.20  35.069  24.506
 833.70  35.005  24.475
 834.20  35.005  24.475
 834.70  34.776  24.506
 835.20  35.005  24.475
 835.70  35.005  24.506
 836.20  35.069  24.475
 836.70  35.005  24.506
 837.20  34.892  24.506
 837.70  35.005  24.536
 838.20  35.005  24.475
 838.70  35.005  24.475
 839.20  35.069  24.506
 839.70  34.892  24.475
 840.20  35.069  24.506
 840.70  34.892  24.506
 841.20  35.069  24.506
 841.70  35.005  24.506
 842.20  35.069  24.506
 842.70  35.005  24.506
 843.20  35.005  24.506
 843.70  35.069  24.506
 844.20  35.069  24.506
 844.70  35.133  24.536
 845.20  35.005  24.475
 845.70  35.005  24.475
 846.20  35.069  24.506
 846.70  35.005  24.506
 847.20  35.069  24.506
 847.70  35.005  24.475
 848.20  35.005  24.506
 848.70  35.005  24.475
 849.20  35.005  24.506
 849.70  35.005  24.475
 850.20  35.069  24.475
 850.70  35.005  24.506
 851.20  35.005  24.475
 851.70  35.005  24.506
 852.20  35.005  24.506
 852.70  35.069  24.536
 853.20  35.069  24.506
 853.70  35.069  24.506
 854.20  35.005  24.506
 854.70  35.069  24.475
 855.20  35.133  24.475
 855.70  35.005  24.506
 856.20  35.069  24.506
 856.70  35.069  24.567
 857.20  35.069  24.506
 857.70  35.133  24.506
 858.20  35.005  24.506
 858.70  35.069  24.536
 859.20  35.133  24.506
 859.70  35.069  24.475
 860.20  35.133  24.506
 860.70  35.069  24.506
 861.20  35.005  24.475
 861.70  35.133  24.506
 862.20  35.069  24.506
 862.70  35.069  24.475
 863.20  35.069  24.475
 863.70  35.133  24.506
 864.20  35.069  24.506
 864.70  35.133  24.506
 865.20  35.069  24.506
 865.70  35.133  24.506
 866.20  35.069  24.506
 866.70  35.197  24.506
 867.20  35.069  24.444
 867.70  35.133  24.506
 868.20  35.197  24.506
 868.70  35.133  24.506
 869.20  35.133  24.475
 869.70  35.197  24.475
 870.20  35.133  24.506
 870.70  35.069  24.475
 871.20  35.069  24.506
 871.70  35.069  24.475
 872.20  35.133  24.506
 872.70  35.069  24.444
 873.20  35.133  24.506
 873.70  35.133  24.506
 874.20  35.133  24.506
 874.70  35.133  24.475
 875.20  35.069  24.536
 875.70  35.069  24.506
 876.20  35.197  24.506
 876.70  35.197  24.475
 877.20  35.133  24.413
 877.70  35.197  24.475
 878.20  35.133  24.475
 878.70  35.197  24.506
 879.20  35.133  24.475
 879.70  35.133  24.475
 880.20  35.133  24.475
 880.70  35.197  24.506
 881.20  35.133  24.506
 881.70  35.133  24.475
 882.20  35.069  24.475
 882.70  35.133  24.444
 883.20  35.261  24.506
 883.70  35.069  24.506
 884.20  35.069  24.475
 884.70  35.197  24.475
 885.20  35.197  24.475
 885.70  35.197  24.506
 886.20  35.133  24.475
 886.70  35.133  24.536
 887.20  35.133  24.506
 887.70  35.133  24.444
 888.20  35.197  24.506
 888.70  35.197  24.506
 889.20  35.261  24.506
 889.70  35.133  24.475
 890.20  35.133  24.506
 890.70  35.069  24.506
 891.20  35.133  24.506
 891.70  35.197  24.444
 892.20  35.133  24.536
 892.70  35.197  24.444
 893.20  35.133  24.475
 893.70  35.197  24.444
 894.20  35.197  24.506
 894.70  35.197  24.475
 895.20  35.133  24.475
 895.70  35.133  24.475
 896.20  35.133  24.475
 896.70  35.197  24.413
 897.20  35.133  24.475
 897.70  35.197  24.506
 898.20  35.325  24.506
 898.70  35.133  24.444
 899.20  35.197  24.444
 899.70  35.197  24.475
 900.20  35.261  24.506
 900.70  35.133  24.475
 901.20  35.133  24.506
 901.70  35.325  24.475
 902.20  35.197  24.475
 902.70  35.261  24.475
 903.20  35.261  24.506
 903.70  35.133  24.475
 904.20  35.133  24.475
 904.70  35.197  24.475
 905.20  35.133  24.506
 905.70  35.261  24.475
 906.20  35.197  24.506
 906.70  35.325  24.475
 907.20  35.261  24.475
 907.70  35.197  24.506
 908.20  35.197  24.506
 908.70  35.197  24.536
 909.20  35.197  24.506
 909.70  35.197  24.506
 910.20  35.197  24.475
 910.70  35.261  24.506
 911.20  35.197  24.506
 911.70  35.261  24.475
 912.20  35.197  24.475
 912.70  35.261  24.444
 913.20  35.197  24.506
 913.70  35.261  24.506
 914.20  35.261  24.475
 914.70  35.197  24.475
 915.20  35.261  24.506
 915.70  35.325  24.475
 916.20  35.261  24.475
 916.70  35.261  24.475
 917.20  35.261  24.475
 917.70  35.261  24.475
 918.20  35.197  24.475
 918.70  35.133  24.475
 919.20  35.325  24.475
 919.70  35.261  24.475
 920.20  35.133  24.475
 920.70  35.389  24.536
 921.20  35.261  24.475
 921.70  35.325  24.475
 922.20  35.261  24.506
 922.70  35.197  24.506
 923.20  35.197  24.475
 923.70  35.261  24.475
 924.20  35.325  24.475
 924.70  35.261  24.475
 925.20  35.261  24.475
 925.70  35.133  24.475
 926.20  35.325  24.506
 926.70  35.261  24.475
 927.20  35.261  24.506
 927.70  35.325  24.475
 928.20  35.325  24.475
 928.70  35.197  24.475
 929.20  35.325  24.506
 929.70  35.389  24.475
 930.20  35.325  24.475
 930.70  35.389  24.475
 931.20  35.517  24.475
 931.70  35.325  24.475
 932.20  35.325  24.444
 932.70  35.389  24.475
 933.20  35.453  24.475
 933.70  35.389  24.536
 934.20  35.389  24.506
 934.70  35.453  24.444
 935.20  35.389  24.536
 935.70  35.389  24.444
 936.20  35.517  24.444
 936.70  35.389  24.475
 937.20  35.453  24.475
 937.70  35.389  24.475
 938.20  35.389  24.506
 938.70  35.389  24.475
 939.20  35.325  24.475
 939.70  35.325  24.475
 940.20  35.389  24.506
 940.70  35.453  24.475
 941.20  35.453  24.475
 941.70  35.453  24.506
 942.20  35.453  24.475
 942.70  35.453  24.536
 943.20  35.389  24.475
 943.70  35.453  24.506
 944.21  35.517  24.475
 944.71  35.389  24.444
 945.21  35.389  24.475
 945.71  35.389  24.475
 946.21  35.453  24.475
 946.71  35.453  24.444
 947.21  35.389  24.475
 947.71  35.389  24.475
 948.21  35.389  24.444
 948.71  35.453  24.506
 949.21  35.389  24.475
 949.71  35.453  24.475
 950.21  35.453  24.506
 950.71  35.453  24.506
 951.21  35.389  24.444
 951.71  35.389  24.506
 952.21  35.453  24.475
 952.71  35.453  24.475
 953.21  35.517  24.475
 953.71  35.453  24.475
 954.21  35.453  24.475
 954.71  35.453  24.444
 955.21  35.453  24.506
 955.71  35.517  24.444
 956.21  35.453  24.444
 956.71  35.389  24.506
 957.21  35.389  24.475
 957.71  35.517  24.475
 958.21  35.453  24.475
 958.71  35.453  24.475
 959.21  35.453  24.444
 959.71  35.453  24.444
 960.21  35.389  24.475
 960.71  35.453  24.475
 961.21  35.453  24.475
 961.71  35.389  24.444
 962.21  35.517  24.475
 962.71  35.453  24.444
 963.21  35.453  24.506
 963.71  35.453  24.444
 964.21  35.453  24.444
 964.71  35.453  24.444
 965.21  35.389  24.444
 965.71  35.517  24.475
 966.21  35.453  24.444
 966.71  35.453  24.475
 967.21  35.517  24.475
 967.71  35.453  24.444
 968.21  35.453  24.444
 968.71  35.517  24.475
 969.21  35.453  24.475
 969.71  35.453  24.475
 970.21  35.581  24.444
 970.71  35.453  24.506
 971.21  35.517  24.475
 971.71  35.453  24.444
 972.21  35.453  24.444
 972.71  35.453  24.506
 973.21  35.453  24.413
 973.71  35.453  24.475
 974.21  35.517  24.506
 974.71  35.453  24.475
 975.21  35.453  24.598
 975.71  35.453  24.475
 976.21  35.517  24.475
 976.71  35.517  24.475
 977.21  35.517  24.475
 977.71  35.517  24.506
 978.21  35.645  24.444
 978.71  35.581  24.475
 979.21  35.453  24.475
 979.71  35.517  24.475
 980.21  35.453  24.444
 980.71  35.517  24.475
 981.21  35.581  24.444
 981.71  35.517  24.444
 982.21  35.581  24.475
 982.71  35.517  24.413
 983.21  35.453  24.475
 983.71  35.453  24.506
 984.21  35.517  24.475
 984.71  35.581  24.475
 985.21  35.517  24.475
 985.71  35.517  24.506
 986.21  35.517  24.475
 986.71  35.581  24.444
 987.21  35.517  24.475
 987.71  35.517  24.475
 988.21  35.581  24.444
 988.71  35.709  24.475
 989.21  35.517  24.475
 989.71  35.517  24.475
 990.21  35.517  24.475
 990.71  35.517  24.444
 991.21  35.581  24.475
 991.71  35.581  24.475
 992.21  35.581  24.444
 992.71  35.517  24.444
 993.21  35.517  24.475
 993.71  35.517  24.475
 994.21  35.517  24.444
 994.71  35.581  24.475
 995.21  35.581  24.475
 995.71  35.581  24.444
 996.21  35.581  24.475
 996.71  35.581  24.444
 997.21  35.517  24.475
 997.71  35.581  24.444
 998.21  35.581  24.475
 998.71  35.517  24.475
 999.21  35.581  24.444
 999.71  35.517  24.444
1000.21  35.453  24.444
1000.71  35.581  24.444
1001.21  35.581  24.475
1001.71  35.581  24.475
1002.21  35.517  24.475
1002.71  35.453  24.444
1003.21  35.581  24.444
1003.71  35.517  24.475
1004.21  35.709  24.444
1004.71  35.581  24.475
1005.21  35.645  24.444
1005.71  35.581  24.475
1006.21  35.581  24.444
1006.71  35.581  24.444
1007.21  35.581  24.475
1007.71  35.581  24.475
1008.21  35.645  24.444
1008.71  35.645  24.475
1009.21  35.517  24.475
1009.71  35.581  24.444
1010.21  35.581  24.444
1010.71  35.581  24.475
1011.21  35.581  24.475
1011.71  35.517  24.475
1012.21  35.581  24.444
1012.71  35.517  24.444
1013.21  35.581  24.444
1013.71  35.581  24.444
1014.21  35.581  24.444
1014.71  35.645  24.475
1015.21  35.581  24.475
1015.71  35.645  24.475
1016.21  35.581  24.475
1016.71  35.581  24.475
1017.21  35.645  24.506
1017.71  35.581  24.475
1018.21  35.581  24.475
1018.71  35.581  24.444
1019.21  35.581  24.444
1019.71  35.581  24.444
1020.21  35.645  24.444
1020.71  35.773  24.444
1021.21  35.581  24.506
1021.71  35.645  24.475
1022.21  35.645  24.475
1022.71  35.645  24.475
1023.21  35.645  24.475
1023.71  35.709  24.413
1024.21  35.517  24.475
1024.71  35.645  24.475
1025.21  35.645  24.413
1025.71  35.645  24.475
1026.21  35.645  24.506
1026.71  35.581  24.444
1027.21  35.581  24.413
1027.71  35.645  24.506
1028.21  35.645  24.444
1028.71  35.581  24.475
1029.21  35.645  24.475
1029.71  35.581  24.475
1030.21  35.645  24.444
1030.71  35.645  24.444
1031.21  35.709  24.475
1031.71  35.645  24.475
1032.21  35.645  24.413
1032.71  35.645  24.475
1033.21  35.645  24.475
1033.71  35.581  24.475
1034.21  35.645  24.506
1034.71  35.645  24.475
1035.21  35.709  24.444
1035.71  35.645  24.444
1036.21  35.709  24.475
1036.71  35.645  24.444
1037.21  35.709  24.475
1037.71  35.645  24.444
1038.21  35.773  24.475
1038.71  35.645  24.506
1039.21  35.709  24.444
1039.71  35.645  24.475
1040.21  35.709  24.444
1040.71  35.645  24.413
1041.21  35.645  24.475
1041.71  35.517  24.475
1042.21  35.645  24.444
1042.71  35.773  24.475
1043.21  35.645  24.475
1043.71  35.709  24.475
1044.21  35.581  24.444
1044.71  35.709  24.475
1045.21  35.645  24.444
1045.71  35.581  24.444
1046.21  35.773  24.444
1046.71  35.645  24.475
1047.21  35.709  24.444
1047.71  35.645  24.444
1048.21  35.773  24.475
1048.71  35.645  24.444
1049.21  35.645  24.444
1049.71  35.709  24.444
1050.21  35.709  24.475
1050.71  35.645  24.475
1051.21  35.645  24.475
1051.71  35.837  24.444
1052.21  35.709  24.444
1052.71  35.645  24.506
1053.21  35.709  24.444
1053.71  35.709  24.444
1054.21  35.709  24.475
1054.71  35.581  24.444
1055.21  35.709  24.475
1055.71  35.709  24.444
1056.21  35.709  24.475
1056.71  35.709  24.475
1057.21  35.645  24.506
1057.71  35.709  24.506
1058.21  35.709  24.444
1058.71  35.709  24.475
1059.21  35.645  24.444
1059.71  35.709  24.475
1060.21  35.709  24.444
1060.71  35.709  24.413
1061.21  35.709  24.444
1061.71  35.645  24.444
1062.21  35.709  24.475
1062.71  35.645  24.475
1063.21  35.709  24.382
1063.71  35.773  24.444
1064.21  35.709  24.444
1064.71  35.773  24.475
1065.21  35.709  24.475
1065.71  35.709  24.475
1066.21  35.709  24.413
1066.71  35.837  24.444
1067.21  35.773  24.506
1067.71  35.837  24.475
1068.22  35.709  24.475
1068.72  35.773  24.475
1069.22  35.709  24.444
1069.72  35.773  24.475
1070.22  35.645  24.536
1070.72  35.709  24.536
1071.22  35.837  24.444
1071.72  35.773  24.506
1072.22  35.645  24.444
1072.72  35.773  24.506
1073.22  35.773  24.536
1073.72  35.709  24.444
1074.22  35.709  24.444
1074.72  35.773  24.444
1075.22  35.773  24.413
1075.72  35.709  24.444
1076.22  35.773  24.475
1076.72  35.709  24.506
1077.22  35.773  24.444
1077.72  35.773  24.444
1078.22  35.773  24.475
1078.72  35.773  24.475
1079.22  35.773  24.475
1079.72  35.773  24.444
1080.22  35.773  24.475
1080.72  35.773  24.444
1081.22  35.773  24.444
1081.72  35.773  24.444
1082.22  35.773  24.475
1082.72  35.709  24.413
1083.22  35.773  24.444
1083.72  35.773  24.444
1084.22  35.773  24.444
1084.72  35.773  24.475
1085.22  35.837  24.444
1085.72  35.773  24.444
1086.22  35.837  24.444
1086.72  35.773  24.444
1087.22  35.837  24.413
1087.72  35.773  24.444
1088.22  35.773  24.444
1088.72  35.773  24.444
1089.22  35.773  24.444
1089.72  35.773  24.475
1090.22  35.773  24.413
1090.72  35.837  24.444
1091.22  35.773  24.506
1091.72  35.837  24.506
1092.22  35.837  24.506
1092.72  35.837  24.475
1093.22  35.773  24.444
1093.72  35.837  24.444
1094.22  35.837  24.444
1094.72  35.773  24.475
1095.22  35.773  24.475
1095.72  35.773  24.475
1096.22  35.901  24.475
1096.72  35.773  24.475
1097.22  35.837  24.475
1097.72  35.773  24.444
1098.22  35.837  24.475
1098.72  35.773  24.444
1099.22  35.773  24.475
1099.72  35.837  24.475
1100.22  35.837  24.475
1100.72  35.837  24.475
1101.22  35.837  24.475
1101.72  35.773  24.506
1102.22  35.837  24.506
1102.72  35.837  24.475
1103.22  35.837  24.475
1103.72  35.773  24.475
1104.22  35.837  24.475
1104.72  35.837  24.475
1105.22  35.773  24.475
1105.72  35.901  24.506
1106.22  35.837  24.475
1106.72  35.901  24.444
1107.22  35.901  24.475
1107.72  35.837  24.444
1108.22  35.837  24.475
1108.72  35.837  24.475
1109.22  35.837  24.444
1109.72  35.773  24.475
1110.22  35.901  24.444
1110.72  35.965  24.475
1111.22  35.837  24.444
1111.72  35.901  24.444
1112.22  35.837  24.444
1112.72  35.837  24.444
1113.22  35.901  24.506
1113.72  35.901  24.413
1114.22  35.837  24.444
1114.72  35.901  24.475
1115.22  35.837  24.444
1115.72  35.901  24.475
1116.22  35.901  24.475
1116.72  35.837  24.475
1117.22  35.837  24.444
1117.72  35.837  24.506
1118.22  35.837  24.475
1118.72  35.837  24.475
1119.22  35.837  24.475
1119.72  35.901  24.506
1120.22  35.837  24.444
1120.72  35.901  24.475
1121.22  35.901  24.475
1121.72  35.901  24.475
1122.22  35.837  24.444
1122.72  35.837  24.475
1123.22  35.837  24.475
1123.72  35.901  24.475
1124.22  35.901  24.475
1124.72  35.773  24.475
1125.22  35.837  24.444
1125.72  36.029  24.444
1126.22  35.901  24.444
1126.72  35.901  24.475
1127.22  35.901  24.475
1127.72  35.901  24.475
1128.22  35.837  24.475
1128.72  35.901  24.475
1129.22  35.901  24.506
1129.72  35.901  24.444
1130.22  35.837  24.444
1130.72  35.837  24.444
1131.22  35.901  24.475
1131.72  35.837  24.475
1132.22  35.837  24.475
1132.72  35.901  24.444
1133.22  35.901  24.444
1133.72  35.901  24.475
1134.22  35.901  24.444
1134.72  35.901  24.444
1135.22  35.901  24.444
1135.72  35.901  24.444
1136.22  35.901  24.444
1136.72  35.965  24.444
1137.22  35.901  24.444
1137.72  35.965  24.444
1138.22  35.965  24.444
1138.72  35.901  24.444
1139.22  35.901  24.475
1139.72  35.965  24.475
1140.22  35.901  24.444
1140.72  35.837  24.444
1141.22  35.901  24.475
1141.72  35.965  24.475
1142.22  35.901  24.444
1142.72  35.965  24.444
1143.22  35.901  24.444
1143.72  35.901  24.413
1144.22  35.965  24.444
1144.72  35.901  24.475
1145.22  35.901  24.444
1145.72  35.837  24.413
1146.22  35.965  24.475
1146.72  35.901  24.444
1147.22  35.901  24.444
1147.72  35.901  24.444
1148.22  35.965  24.475
1148.72  35.837  24.444
1149.22  35.965  24.475
1149.72  35.901  24.444
1150.22  36.157  24.444
1150.72  35.901  24.444
1151.22  35.901  24.444
1151.72  35.965  24.475
1152.22  35.837  24.475
1152.72  35.965  24.444
1153.22  35.965  24.506
1153.72  35.901  24.444
1154.22  35.901  24.444
1154.72  35.965  24.475
1155.22  35.965  24.444
1155.72  35.901  24.444
1156.22  35.965  24.475
1156.72  35.965  24.444
1157.22  35.965  24.475
1157.72  36.093  24.444
1158.22  35.965  24.475
1158.72  35.965  24.475
1159.22  35.965  24.444
1159.72  35.901  24.444
1160.22  35.965  24.475
1160.72  35.965  24.444
1161.22  36.029  24.475
1161.72  35.901  24.475
1162.22  35.965  24.475
1162.72  36.029  24.475
1163.22  35.901  24.444
1163.72  35.901  24.475
1164.22  35.965  24.444
1164.72  35.965  24.444
1165.22  35.965  24.506
1165.72  36.029  24.475
1166.22  35.901  24.475
1166.72  35.965  24.475
1167.22  35.965  24.475
1167.72  35.965  24.506
1168.22  36.029  24.506
1168.72  35.965  24.475
1169.22  35.965  24.444
1169.72  36.029  24.475
1170.22  35.965  24.475
1170.72  36.029  24.475
1171.22  36.029  24.444
1171.72  35.965  24.475
1172.22  35.965  24.475
1172.72  35.965  24.475
1173.22  36.029  24.475
1173.72  36.221  24.444
1174.22  35.965  24.444
1174.72  35.965  24.444
1175.22  35.965  24.444
1175.72  36.029  24.475
1176.22  35.965  24.475
1176.72  35.901  24.444
1177.22  36.029  24.475
1177.72  36.029  24.506
1178.22  36.093  24.444
1178.72  36.029  24.475
1179.22  35.965  24.444
1179.72  36.029  24.444
1180.22  36.029  24.444
1180.72  36.029  24.444
1181.23  36.029  24.475
1181.73  36.093  24.475
1182.23  35.965  24.444
1182.73  35.965  24.536
1183.23  36.029  24.444
1183.73  36.029  24.475
1184.23  36.221  24.475
1184.73  36.029  24.444
1185.23  36.029  24.444
1185.73  35.965  24.444
1186.23  35.965  24.444
1186.73  36.029  24.475
1187.23  35.901  24.475
1187.73  35.965  24.475
1188.23  36.029  24.475
1188.73  35.965  24.506
1189.23  36.029  24.444
1189.73  36.093  24.413
1190.23  36.093  24.413
1190.73  36.029  24.475
1191.23  36.029  24.444
1191.73  36.093  24.475
1192.23  36.029  24.475
1192.73  36.029  24.444
1193.23  35.965  24.475
1193.73  36.093  24.444
1194.23  36.029  24.475
1194.73  36.029  24.444
1195.23  36.221  24.444
1195.73  36.093  24.444
1196.23  36.157  24.413
1196.73  36.029  24.444
1197.23  36.029  24.444
1197.73  35.965  24.475
1198.23  36.029  24.444
1198.73  35.965  24.444
1199.23  36.029  24.475
1199.73  36.029  24.444
1200.23  36.029  24.444
1200.73  35.965  24.413
1201.23  36.029  24.444
1201.73  36.029  24.444
1202.23  36.029  24.444
1202.73  36.029  24.444
1203.23  36.093  24.475
1203.73  36.029  24.444
1204.23  36.029  24.475
1204.73  36.029  24.413
1205.23  36.093  24.444
1205.73  35.965  24.475
1206.23  36.029  24.444
1206.73  36.029  24.475
1207.23  36.029  24.506
1207.73  36.093  24.475
1208.23  36.093  24.475
1208.73  36.093  24.536
1209.23  36.093  24.444
1209.73  36.093  24.475
1210.23  36.029  24.444
1210.73  36.093  24.506
1211.23  36.221  24.444
1211.73  36.029  24.444
1212.23  36.029  24.444
1212.73  36.093  24.444
1213.23  36.093  24.475
1213.73  36.093  24.444
1214.23  36.029  24.506
1214.73  36.157  24.444
1215.23  36.157  24.444
1215.73  36.093  24.444
1216.23  36.093  24.506
1216.73  36.093  24.413
1217.23  36.157  24.444
1217.73  36.093  24.444
1218.23  36.093  24.475
1218.73  36.093  24.413
1219.23  36.221  24.475
1219.73  36.157  24.506
1220.23  36.093  24.444
1220.73  36.029  24.444
1221.23  36.157  24.475
1221.73  36.093  24.475
1222.23  36.093  24.506
1222.73  36.093  24.444
1223.23  36.093  24.444
1223.73  36.157  24.444
1224.23  36.157  24.444
1224.73  36.157  24.475
1225.23  36.093  24.475
1225.73  36.157  24.444
1226.23  36.157  24.444
1226.73  36.093  24.444
1227.23  36.093  24.444
1227.73  36.157  24.444
1228.23  36.157  24.444
1228.73  36.157  24.475
1229.23  36.029  24.444
1229.73  36.029  24.475
1230.23  36.093  24.506
1230.73  36.157  24.444
1231.23  36.093  24.444
1231.73  36.157  24.444
1232.23  36.157  24.475
1232.73  36.157  24.475
1233.23  36.093  24.475
1233.73  36.093  24.444
1234.23  36.157  24.444
1234.73  36.157  24.475
1235.23  36.157  24.444
1235.73  36.157  24.444
1236.23  36.093  24.413
1236.73  36.093  24.444
1237.23  36.157  24.506
1237.73  36.093  24.475
1238.23  36.157  24.444
1238.73  36.221  24.475
1239.23  36.157  24.475
1239.73  36.093  24.475
1240.23  36.157  24.475
1240.73  36.157  24.475
1241.23  36.157  24.475
1241.73  36.157  24.444
1242.23  36.093  24.475
1242.73  36.093  24.475
1243.23  36.093  24.444
1243.73  36.093  24.444
1244.23  36.221  24.475
1244.73  36.093  24.475
1245.23  36.221  24.444
1245.73  36.157  24.413
1246.23  36.157  24.413
1246.73  36.093  24.475
1247.23  36.157  24.413
1247.73  36.093  24.475
1248.23  36.157  24.444
1248.73  36.221  24.444
1249.23  36.157  24.475
1249.73  36.157  24.475
1250.23  36.221  24.475
1250.73  36.221  24.444
1251.23  36.157  24.444
1251.73  36.157  24.444
1252.23  36.157  24.444
1252.73  36.157  24.475
1253.23  36.093  24.444
1253.73  36.157  24.475
1254.23  36.157  24.444
1254.73  36.157  24.475
1255.23  36.093  24.444
1255.73  36.221  24.475
1256.23  36.157  24.475
1256.73  36.157  24.444
1257.23  36.221  24.475
1257.73  36.221  24.444
1258.23  36.285  24.413
1258.73  36.157  24.475
1259.23  36.221  24.475
1259.73  36.221  24.444
1260.23  36.157  24.475
1260.73  36.093  24.475
1261.23  36.157  24.475
1261.73  36.157  24.444
1262.23  36.221  24.475
1262.73  36.221  24.475
1263.23  36.285  24.475
1263.73  36.221  24.444
1264.23  36.157  24.475
1264.73  36.221  24.444
1265.23  36.157  24.444
1265.73  36.029  24.475
1266.23  36.157  24.444
1266.73  36.157  24.475
1267.23  36.157  24.444
1267.73  36.285  24.444
1268.23  36.221  24.413
1268.73  36.157  24.536
1269.23  36.157  24.475
1269.73  36.157  24.413
1270.23  36.221  24.475
1270.73  36.221  24.444
1271.23  36.093  24.475
1271.73  36.221  24.475
1272.23  36.157  24.444
1272.73  36.157  24.444
1273.23  36.157  24.475
1273.73  36.285  24.444
1274.23  36.221  24.444
1274.73  36.221  24.444
1275.23  36.157  24.413
1275.73  36.157  24.444
1276.23  36.413  24.351
1276.73  36.221  24.444
1277.23  36.221  24.444
1277.73  36.285  24.506
1278.23  36.221  24.413
1278.73  36.157  24.475
1279.23  36.157  24.444
1279.73  36.221  24.475
1280.23  36.221  24.444
1280.73  36.285  24.475
1281.23  36.221  24.444
1281.73  36.157  24.475
1282.23  36.221  24.444
1282.73  36.285  24.475
1283.23  36.221  24.475
1283.73  36.221  24.475
1284.23  36.093  24.444
1284.73  36.157  24.475
1285.23  36.221  24.413
1285.73  36.221  24.444
1286.23  36.221  24.444
1286.73  36.157  24.444
1287.23  36.221  24.444
1287.73  36.157  24.506
1288.23  36.221  24.444
1288.73  36.221  24.475
1289.23  36.285  24.475
1289.73  36.157  24.444
1290.23  36.221  24.444
1290.73  36.221  24.444
1291.23  36.221  24.444
1291.73  36.221  24.444
1292.23  36.221  24.444
1292.73  36.221  24.444
1293.23  36.221  24.444
1293.73  36.285  24.444
1294.24  36.157  24.444
1294.74  36.157  24.475
1295.24  36.221  24.506
1295.74  36.221  24.444
1296.24  36.285  24.475
1296.74  36.221  24.444
1297.24  36.285  24.475
1297.74  36.285  24.475
1298.24  36.285  24.475
1298.74  36.285  24.475
1299.24  36.221  24.475
1299.74  36.221  24.506
1300.24  36.285  24.475
1300.74  36.221  24.475
1301.24  36.221  24.475
1301.74  36.349  24.475
1302.24  36.285  24.475
1302.74  36.285  24.475
1303.24  36.285  24.444
1303.74  36.221  24.413
1304.24  36.221  24.444
1304.74  36.221  24.475
1305.24  36.221  24.475
1305.74  36.349  24.475
1306.24  36.285  24.444
1306.74  36.221  24.475
1307.24  36.285  24.475
1307.74  36.221  24.475
1308.24  36.285  24.444
1308.74  36.221  24.475
1309.24  36.349  24.475
1309.74  36.285  24.475
1310.24  36.349  24.475
1310.74  36.221  24.475
1311.24  36.285  24.444
1311.74  36.285  24.444
1312.24  36.221  24.506
1312.74  36.285  24.413
1313.24  36.221  24.475
1313.74  36.285  24.475
1314.24  36.285  24.444
1314.74  36.221  24.475
1315.24  36.413  24.444
1315.74  36.285  24.506
1316.24  36.285  24.444
1316.74  36.349  24.475
1317.24  36.221  24.506
1317.74  36.285  24.351
1318.24  36.285  24.413
1318.74  36.349  24.475
1319.24  36.285  24.475
1319.74  36.349  24.444
1320.24  36.349  24.444
1320.74  36.349  24.413
1321.24  36.285  24.444
1321.74  36.221  24.444
1322.24  36.221  24.475
1322.74  36.285  24.444
1323.24  36.285  24.475
1323.74  36.285  24.506
1324.24  36.157  24.475
1324.74  36.285  24.444
1325.24  36.285  24.444
1325.74  36.285  24.475
1326.24  36.285  24.475
1326.74  36.285  24.475
1327.24  36.221  24.475
1327.74  36.285  24.444
1328.24  36.285  24.475
1328.74  36.285  24.475
1329.24  36.349  24.444
1329.74  36.349  24.506
1330.24  36.349  24.444
1330.74  36.349  24.444
1331.24  36.285  24.444
1331.74  36.285  24.444
1332.24  36.285  24.444
1332.74  36.285  24.444
1333.24  36.349  24.475
1333.74  36.285  24.444
1334.24  36.349  24.475
1334.74  36.349  24.475
1335.24  36.349  24.444
1335.74  36.349  24.475
1336.24  36.285  24.444
1336.74  36.285  24.444
1337.24  36.349  24.444
1337.74  36.349  24.475
1338.24  36.285  24.444
1338.74  36.413  24.444
1339.24  36.349  24.475
1339.74  36.285  24.475
1340.24  36.285  24.475
1340.74  36.285  24.475
1341.24  36.349  24.444
1341.74  36.285  24.444
1342.24  36.413  24.475
1342.74  36.349  24.444
1343.24  36.221  24.444
1343.74  36.221  24.475
1344.24  36.349  24.444
1344.74  36.285  24.475
1345.24  36.349  24.413
1345.74  36.285  24.475
1346.24  36.285  24.475
1346.74  36.285  24.475
1347.24  36.349  24.444
1347.74  36.349  24.444
1348.24  36.349  24.444
1348.74  36.413  24.444
1349.24  36.221  24.475
1349.74  36.349  24.444
1350.24  36.285  24.444
1350.74  36.349  24.444
1351.24  36.413  24.444
1351.74  36.285  24.475
1352.24  36.285  24.444
1352.74  36.285  24.444
1353.24  36.349  24.444
1353.74  36.285  24.506
1354.24  36.349  24.506
1354.74  36.349  24.475
1355.24  36.349  24.444
1355.74  36.285  24.475
1356.24  36.413  24.444
1356.74  36.349  24.444
1357.24  36.349  24.444
1357.74  36.413  24.444
1358.24  36.349  24.444
1358.74  36.349  24.444
1359.24  36.349  24.444
1359.74  36.413  24.475
1360.24  36.349  24.444
1360.74  36.349  24.413
1361.24  36.349  24.475
1361.74  36.349  24.444
1362.24  36.349  24.506
1362.74  36.413  24.475
1363.24  36.349  24.444
1363.74  36.349  24.475
1364.24  36.349  24.444
1364.74  36.413  24.444
1365.24  36.349  24.444
1365.74  36.349  24.475
1366.24  36.349  24.475
1366.74  36.349  24.475
1367.24  36.349  24.444
1367.74  36.349  24.444
1368.24  36.349  24.475
1368.74  36.413  24.413
1369.24  36.413  24.475
1369.74  36.349  24.444
1370.24  36.477  24.444
1370.74  36.349  24.444
1371.24  36.349  24.506
1371.74  36.285  24.444
1372.24  36.477  24.475
1372.74  36.413  24.444
1373.24  36.413  24.475
1373.74  36.413  24.444
1374.24  36.477  24.475
1374.74  36.349  24.444
1375.24  36.413  24.444
1375.74  36.413  24.444
1376.24  36.349  24.444
1376.74  36.349  24.475
1377.24  36.285  24.444
1377.74  36.285  24.444
1378.24  36.285  24.444
1378.74  36.349  24.444
1379.24  36.413  24.475
1379.74  36.349  24.444
1380.24  36.349  24.444
1380.74  36.349  24.475
1381.24  36.413  24.444
1381.74  36.349  24.475
1382.24  36.349  24.444
1382.74  36.349  24.413
1383.24  36.349  24.444
1383.74  36.349  24.444
1384.24  36.413  24.475
1384.74  36.349  24.444
1385.24  36.349  24.444
1385.74  36.349  24.444
1386.24  36.413  24.475
1386.74  36.349  24.444
1387.24  36.285  24.475
1387.74  36.413  24.444
1388.24  36.349  24.475
1388.74  36.349  24.444
1389.24  36.413  24.475
1389.74  36.413  24.475
1390.24  36.477  24.413
1390.74  36.413  24.444
1391.24  36.349  24.506
1391.74  36.349  24.475
1392.24  36.413  24.475
1392.74  36.413  24.444
1393.24  36.413  24.382
1393.74  36.349  24.444
1394.24  36.477  24.475
1394.74  36.413  24.475
1395.24  36.541  24.475
1395.74  36.413  24.444
1396.24  36.477  24.413
1396.74  36.413  24.475
1397.24  36.413  24.506
1397.74  36.413  24.444
1398.24  36.413  24.506
1398.74  36.413  24.475
1399.24  36.477  24.444
1399.74  36.413  24.444
1400.24  36.349  24.475
1400.74  36.413  24.506
1401.24  36.413  24.413
1401.74  36.477  24.444
1402.24  36.541  24.444
1402.74  36.349  24.475
1403.24  36.413  24.444
1403.74  36.349  24.444
1404.24  36.541  24.475
1404.74  36.477  24.444
1405.24  36.413  24.475
1405.74  36.413  24.475
1406.24  36.413  24.444
1406.74  36.477  24.444
1407.25  36.413  24.475
1407.75  36.349  24.413
1408.25  36.413  24.475
1408.75  36.413  24.444
1409.25  36.541  24.475
1409.75  36.413  24.475
1410.25  36.477  24.444
1410.75  36.413  24.475
1411.25  36.413  24.444
1411.75  36.477  24.475
1412.25  36.477  24.444
1412.75  36.413  24.475
1413.25  36.477  24.475
1413.75  36.477  24.475
1414.25  36.413  24.475
1414.75  36.413  24.444
1415.25  36.349  24.475
1415.75  36.413  24.444
1416.25  36.413  24.475
1416.75  36.413  24.444
1417.25  36.477  24.444
1417.75  36.413  24.444
1418.25  36.413  24.444
1418.75  36.541  24.444
1419.25  36.413  24.444
1419.75  36.477  24.475
1420.25  36.413  24.506
1420.75  36.733  24.444
1421.25  36.413  24.475
1421.75  36.413  24.475
1422.25  36.477  24.413
1422.75  36.413  24.444
1423.25  36.413  24.475
1423.75  36.477  24.444
1424.25  36.477  24.444
1424.75  36.349  24.444
1425.25  36.413  24.444
1425.75  36.413  24.444
1426.25  36.413  24.475
1426.75  36.413  24.475
1427.25  36.477  24.475
1427.75  36.477  24.444
1428.25  36.413  24.475
1428.75  36.477  24.444
1429.25  36.477  24.444
1429.75  36.477  24.444
1430.25  36.413  24.444
1430.75  36.413  24.444
1431.25  36.541  24.444
1431.75  36.477  24.475
1432.25  36.349  24.444
1432.75  36.349  24.475
1433.25  36.413  24.444
1433.75  36.477  24.444
1434.25  36.477  24.475
1434.75  36.477  24.413
1435.25  36.477  24.475
1435.75  36.477  24.444
1436.25  36.541  24.444
1436.75  36.413  24.475
1437.25  36.413  24.444
1437.75  36.477  24.475
1438.25  36.413  24.444
1438.75  36.477  24.475
1439.25  36.413  24.444
1439.75  36.349  24.444
1440.25  36.413  24.475
1440.75  36.477  24.475
1441.25  36.477  24.444
1441.75  36.477  24.475
1442.25  36.477  24.475
1442.75  36.477  24.444
1443.25  36.349  24.444
1443.75  36.413  24.475
1444.25  36.477  24.475
1444.75  36.477  24.444
1445.25  36.477  24.444
1445.75  36.413  24.444
1446.25  36.477  24.444
1446.75  36.477  24.475
1447.25  36.477  24.475
1447.75  36.477  24.475
1448.25  36.477  24.444
1448.75  36.477  24.475
1449.25  36.477  24.444
1449.75  36.413  24.506
1450.25  36.477  24.444
1450.75  36.477  24.444
1451.25  36.413  24.444
1451.75  36.477  24.475
1452.25  36.477  24.444
1452.75  36.413  24.444
1453.25  36.477  24.444
1453.75  36.477  24.475
1454.25  36.477  24.413
1454.75  36.477  24.475
1455.25  36.477  24.475
1455.75  36.477  24.475
1456.25  36.477  24.413
1456.75  36.541  24.444
1457.25  36.477  24.475
1457.75  36.477  24.413
1458.25  36.605  24.444
1458.75  36.477  24.475
1459.25  36.541  24.444
1459.75  36.541  24.444
1460.25  36.477  24.475
1460.75  36.477  24.475
1461.25  36.541  24.444
1461.75  36.477  24.475
1462.25  36.413  24.475
1462.75  36.477  24.444
1463.25  36.477  24.444
1463.75  36.477  24.444
1464.25  36.477  24.444
1464.75  36.541  24.444
1465.25  36.477  24.413
1465.75  36.477  24.444
1466.25  36.477  24.413
1466.75  36.541  24.475
1467.25  36.541  24.444
1467.75  36.477  24.444
1468.25  36.605  24.444
1468.75  36.477  24.475
1469.25  36.477  24.444
1469.75  36.477  24.382
1470.25  36.541  24.444
1470.75  36.541  24.444
1471.25  36.541  24.475
1471.75  36.413  24.475
1472.25  36.541  24.475
1472.75  36.541  24.444
1473.25  36.477  24.475
1473.75  36.477  24.506
1474.25  36.541  24.444
1474.75  36.541  24.444
1475.25  36.541  24.475
1475.75  36.541  24.444
1476.25  36.541  24.475
1476.75  36.541  24.413
1477.25  36.541  24.475
1477.75  36.477  24.444
1478.25  36.541  24.444
1478.75  36.541  24.444
1479.25  36.541  24.444
1479.75  36.477  24.475
1480.25  36.541  24.444
1480.75  36.477  24.536
1481.25  36.541  24.475
1481.75  36.541  24.475
1482.25  36.541  24.444
1482.75  36.477  24.413
1483.25  36.477  24.413
1483.75  36.541  24.475
1484.25  36.541  24.475
1484.75  36.541  24.475
1485.25  36.477  24.444
1485.75  36.477  24.444
1486.25  36.605  24.444
1486.75  36.541  24.413
1487.25  36.477  24.444
1487.75  36.541  24.475
1488.25  36.477  24.444
1488.75  36.605  24.444
1489.25  36.541  24.444
1489.75  36.541  24.506
1490.25  36.605  24.444
1490.75  36.541  24.444
1491.25  36.605  24.444
1491.75  36.541  24.444
1492.25  36.669  24.506
1492.75  36.541  24.444
1493.25  36.541  24.475
1493.75  36.605  24.475
1494.25  36.541  24.475
1494.75  36.541  24.444
1495.25  36.605  24.475
1495.75  36.477  24.475
1496.25  36.605  24.475
1496.75  36.477  24.475
1497.25  36.541  24.475
1497.75  36.605  24.444
1498.25  36.349  24.444
1498.75  36.541  24.475
1499.25  36.541  24.444
1499.75  36.541  24.475
1500.25  36.541  24.444
1500.75  36.605  24.444
1501.25  36.541  24.475
1501.75  36.477  24.475
1502.25  36.605  24.475
1502.75  36.605  24.475
1503.25  36.541  24.475
1503.75  36.541  24.506
1504.25  36.541  24.475
1504.75  36.541  24.475
1505.25  36.541  24.536
1505.75  36.605  24.475
1506.25  36.605  24.444
1506.75  36.541  24.444
1507.25  36.541  24.506
1507.75  36.605  24.475
1508.25  36.605  24.475
1508.75  36.541  24.444
1509.25  36.541  24.506
1509.76  36.541  24.506
1510.26  36.605  24.444
1510.76  36.605  24.475
1511.26  36.541  24.475
1511.76  36.605  24.506
1512.26  36.541  24.506
1512.76  36.605  24.475
1513.26  36.605  24.444
1513.76  36.541  24.413
1514.26  36.541  24.444
1514.76  36.605  24.475
1515.26  36.541  24.536
1515.76  36.477  24.444
1516.26  36.541  24.444
1516.76  36.541  24.444
1517.26  36.605  24.506
1517.76  36.541  24.475
1518.26  36.541  24.444
1518.76  36.605  24.475
1519.26  36.541  24.475
1519.76  36.605  24.475
1520.26  36.541  24.444
1520.76  36.541  24.444
1521.26  36.669  24.444
1521.76  36.605  24.475
1522.26  36.541  24.444
1522.76  36.605  24.413
1523.26  36.605  24.444
1523.76  36.605  24.475
1524.26  36.541  24.475
1524.76  36.541  24.475
1525.26  36.541  24.444
1525.76  36.541  24.444
1526.26  36.605  24.475
1526.76  36.541  24.444
1527.26  36.541  24.475
1527.76  36.605  24.444
1528.26  36.605  24.444
1528.76  36.605  24.475
1529.26  36.669  24.475
1529.76  36.605  24.475
1530.26  36.605  24.475
1530.76  36.669  24.444
1531.26  36.669  24.413
1531.76  36.541  24.475
1532.26  36.541  24.444
1532.76  36.541  24.444
1533.26  36.669  24.444
1533.76  36.541  24.475
1534.26  36.605  24.475
1534.76  36.669  24.475
1535.26  36.605  24.413
1535.76  36.605  24.475
1536.26  36.669  24.444
1536.76  36.541  24.444
1537.26  36.541  24.413
1537.76  36.605  24.413
1538.26  36.605  24.444
1538.76  36.605  24.475
1539.26  36.541  24.444
1539.76  36.541  24.475
1540.26  36.669  24.444
1540.76  36.605  24.475
1541.26  36.605  24.475
1541.76  36.605  24.444
1542.26  36.605  24.475
1542.76  36.605  24.475
1543.26  36.669  24.444
1543.76  36.605  24.444
1544.26  36.605  24.444
1544.76  36.605  24.444
1545.26  36.605  24.444
1545.76  36.605  24.475
1546.26  36.477  24.475
1546.76  36.605  24.444
1547.26  36.669  24.444
1547.76  36.605  24.444
1548.26  36.605  24.444
1548.76  36.605  24.567
1549.26  36.605  24.475
1549.76  36.605  24.475
1550.26  36.605  24.506
1550.76  36.605  24.444
1551.26  36.669  24.506
1551.76  36.605  24.444
1552.26  36.797  24.475
1552.76  36.669  24.506
1553.26  36.605  24.444
1553.76  36.733  24.444
1554.26  36.541  24.444
1554.76  36.733  24.475
1555.26  36.605  24.475
1555.76  36.541  24.475
1556.26  36.669  24.444
1556.76  36.669  24.475
1557.26  36.541  24.475
1557.76  36.669  24.444
1558.26  36.605  24.444
1558.76  36.605  24.444
1559.26  36.605  24.475
1559.76  36.605  24.444
1560.26  36.605  24.475
1560.76  36.605  24.475
1561.26  36.669  24.444
1561.76  36.605  24.444
1562.26  36.605  24.444
1562.76  36.605  24.444
1563.26  36.605  24.475
1563.76  36.605  24.475
1564.26  36.605  24.475
1564.76  36.669  24.413
1565.26  36.669  24.444
1565.76  36.669  24.444
1566.26  36.733  24.444
1566.76  36.669  24.444
1567.26  36.605  24.475
1567.76  36.669  24.506
1568.26  36.733  24.475
1568.76  36.541  24.475
1569.26  36.669  24.475
1569.76  36.669  24.475
1570.26  36.669  24.475
1570.76  36.605  24.506
1571.26  36.733  24.413
1571.76  36.669  24.475
1572.26  36.669  24.444
1572.76  36.669  24.506
1573.26  36.669  24.475
1573.76  36.605  24.413
1574.26  36.733  24.506
1574.76  36.669  24.444
1575.26  36.733  24.475
1575.76  36.669  24.475
1576.26  36.733  24.475
1576.76  36.669  24.444
1577.26  36.669  24.475
1577.76  36.605  24.475
1578.26  36.669  24.444
1578.76  36.669  24.475
1579.26  36.605  24.475
1579.76  36.669  24.475
1580.26  36.669  24.475
1580.76  36.605  24.475
1581.26  36.669  24.444
1581.76  36.605  24.475
1582.26  36.669  24.475
1582.76  36.669  24.475
1583.26  36.605  24.413
1583.76  36.605  24.475
1584.26  36.733  24.444
1584.76  36.605  24.475
1585.26  36.669  24.475
1585.76  36.605  24.475
1586.26  36.669  24.475
1586.76  36.669  24.444
1587.26  36.669  24.475
1587.76  36.733  24.444
1588.26  36.669  24.475
1588.76  36.669  24.475
1589.26  36.669  24.444
1589.76  36.605  24.475
1590.26  36.797  24.475
1590.76  36.605  24.475
1591.26  36.669  24.413
1591.76  36.605  24.444
1592.26  36.669  24.444
1592.76  36.797  24.444
1593.26  36.733  24.444
1593.76  36.733  24.444
1594.26  36.669  24.475
1594.76  36.669  24.475
1595.26  36.733  24.475
1595.76  36.605  24.475
1596.26  36.669  24.475
1596.76  36.733  24.444
1597.26  36.669  24.475
1597.76  36.669  24.444
1598.26  36.669  24.506
1598.76  36.733  24.475
1599.26  36.669  24.444
1599.76  36.733  24.444
1600.26  36.797  24.444
1600.76  36.669  24.475
1601.26  36.669  24.475
1601.76  36.733  24.475
1602.26  36.669  24.475
1602.76  36.541  24.475
1603.26  36.733  24.475
1603.76  36.669  24.475
1604.26  36.733  24.475
1604.76  36.669  24.444
1605.26  36.605  24.444
1605.76  36.669  24.444
1606.26  36.733  24.413
1606.76  36.733  24.475
1607.26  36.669  24.413
1607.76  36.733  24.444
1608.26  36.733  24.475
1608.76  36.669  24.444
1609.26  36.733  24.444
1609.76  36.733  24.475
1610.26  36.733  24.475
1610.76  36.669  24.475
1611.26  36.733  24.475
1611.76  36.733  24.506
1612.26  36.797  24.475
1612.76  36.733  24.475
1613.26  36.733  24.506
1613.76  36.733  24.475
1614.26  36.669  24.475
1614.76  36.669  24.475
1615.26  36.733  24.475
1615.76  36.733  24.475
1616.26  36.605  24.506
1616.76  36.797  24.444
1617.26  36.733  24.475
1617.76  36.669  24.475
1618.26  36.733  24.475
1618.76  36.733  24.475
1619.26  36.733  24.475
1619.76  36.669  24.475
1620.26  36.733  24.444
1620.76  36.669  24.475
1621.26  36.733  24.444
1621.76  36.733  24.444
1622.26  36.733  24.444
1622.77  36.733  24.413
1623.27  36.733  24.506
1623.77  36.733  24.475
1624.27  36.669  24.413
1624.77  36.733  24.475
1625.27  36.669  24.444
1625.77  36.669  24.475
1626.27  36.669  24.475
1626.77  36.669  24.444
1627.27  36.733  24.475
1627.77  36.669  24.506
1628.27  36.733  24.475
1628.77  36.669  24.413
1629.27  36.669  24.475
1629.77  36.669  24.536
1630.27  36.733  24.475
1630.77  36.797  24.475
1631.27  36.669  24.475
1631.77  36.733  24.444
1632.27  36.733  24.444
1632.77  36.669  24.444
1633.27  36.733  24.444
1633.77  36.605  24.444
1634.27  36.669  24.444
1634.77  36.669  24.444
1635.27  36.797  24.444
1635.77  36.669  24.475
1636.27  36.733  24.444
1636.77  36.733  24.475
1637.27  36.605  24.413
1637.77  36.669  24.444
1638.27  36.733  24.506
1638.77  36.733  24.475
1639.27  36.669  24.475
1639.77  36.669  24.475
1640.27  36.669  24.444
1640.77  36.669  24.413
1641.27  36.669  24.444
1641.77  36.669  24.444
1642.27  36.733  24.444
1642.77  36.733  24.506
1643.27  36.669  24.475
1643.77  36.669  24.475
1644.27  36.797  24.475
1644.77  36.797  24.475
1645.27  36.733  24.475
1645.77  36.797  24.444
1646.27  36.797  24.475
1646.77  36.733  24.444
1647.27  36.733  24.444
1647.77  36.797  24.475
1648.27  36.733  24.506
1648.77  36.669  24.444
1649.27  36.733  24.444
1649.77  36.733  24.444
1650.27  36.733  24.444
1650.77  36.733  24.475
1651.27  36.733  24.475
1651.77  36.733  24.444
1652.27  36.733  24.475
1652.77  36.861  24.444
1653.27  36.733  24.475
1653.77  36.733  24.444
1654.27  36.733  24.475
1654.77  36.733  24.475
1655.27  36.733  24.506
1655.77  36.797  24.475
1656.27  36.669  24.444
1656.77  36.733  24.444
1657.27  36.733  24.444
1657.77  36.733  24.475
1658.27  36.733  24.475
1658.77  36.669  24.444
1659.27  36.733  24.475
1659.77  36.733  24.444
1660.27  36.669  24.506
1660.77  36.733  24.475
1661.27  36.733  24.475
1661.77  36.605  24.475
1662.27  36.733  24.444
1662.77  36.605  24.475
1663.27  36.797  24.475
1663.77  36.733  24.475
1664.27  36.797  24.475
1664.77  36.797  24.475
1665.27  36.861  24.444
1665.77  36.797  24.413
1666.27  36.733  24.413
1666.77  36.733  24.475
1667.27  36.797  24.475
1667.77  36.733  24.475
1668.27  36.733  24.475
1668.77  36.733  24.475
1669.27  36.797  24.475
1669.77  36.733  24.444
1670.27  36.669  24.444
1670.77  36.797  24.475
1671.27  36.733  24.413
1671.77  36.733  24.475
1672.27  36.733  24.475
1672.77  36.733  24.444
1673.27  36.797  24.475
1673.77  36.733  24.475
1674.27  36.733  24.475
1674.77  36.861  24.444
1675.27  36.733  24.444
1675.77  36.797  24.444
1676.27  36.733  24.444
1676.77  36.733  24.475
1677.27  36.797  24.413
1677.77  36.733  24.444
1678.27  36.733  24.475
1678.77  36.669  24.444
1679.27  36.733  24.475
1679.77  36.733  24.475
1680.27  36.669  24.475
1680.77  36.733  24.506
1681.27  36.669  24.444
1681.77  36.733  24.475
1682.27  36.733  24.382
1682.77  36.797  24.475
1683.27  36.733  24.444
1683.77  36.797  24.506
1684.27  36.733  24.475
1684.77  36.733  24.475
1685.27  36.733  24.444
1685.77  36.797  24.444
1686.27  36.797  24.475
1686.77  36.733  24.475
1687.27  36.797  24.444
1687.77  36.733  24.444
1688.27  36.733  24.444
1688.77  36.733  24.444
1689.27  36.733  24.475
1689.77  36.797  24.444
1690.27  36.733  24.475
1690.77  36.797  24.475
1691.27  36.733  24.444
1691.77  36.733  24.475
1692.27  36.733  24.475
1692.77  36.733  24.475
1693.27  36.733  24.444
1693.77  36.733  24.413
1694.27  36.733  24.444
1694.77  36.797  24.475
1695.27  36.797  24.444
1695.77  36.797  24.413
1696.27  36.797  24.444
1696.77  36.733  24.506
1697.27  36.861  24.475
1697.77  36.733  24.475
1698.27  36.733  24.475
1698.77  36.797  24.444
1699.27  36.733  24.475
1699.77  36.797  24.475
1700.27  36.797  24.475
1700.77  36.733  24.444
1701.27  36.797  24.444
1701.77  36.797  24.475
1702.27  36.733  24.444
1702.77  36.797  24.475
1703.27  36.733  24.444
1703.77  36.733  24.444
1704.27  36.797  24.475
1704.77  36.797  24.475
1705.27  36.797  24.444
1705.77  36.861  24.475
1706.27  36.733  24.444
1706.77  36.797  24.475
1707.27  36.669  24.475
1707.77  36.797  24.413
1708.27  36.733  24.444
1708.77  36.861  24.475
1709.27  36.797  24.475
1709.77  36.861  24.475
1710.27  36.797  24.475
1710.77  36.797  24.475
1711.27  36.797  24.444
1711.77  36.733  24.444
1712.27  36.861  24.444
1712.77  36.797  24.475
1713.27  36.797  24.444
1713.77  36.797  24.444
1714.27  36.797  24.475
1714.77  36.733  24.506
1715.27  36.797  24.475
1715.77  36.733  24.444
1716.27  36.797  24.444
1716.77  36.797  24.444
1717.27  36.797  24.475
1717.77  36.733  24.475
1718.27  36.733  24.475
1718.77  36.733  24.506
1719.27  36.797  24.444
1719.77  36.797  24.444
1720.27  36.797  24.475
1720.77  36.861  24.475
1721.27  36.861  24.444
1721.77  36.861  24.475
1722.27  36.861  24.444
1722.77  36.797  24.444
1723.27  36.797  24.536
1723.77  36.797  24.475
1724.27  36.733  24.475
1724.77  36.861  24.506
1725.27  36.797  24.475
1725.77  36.797  24.444
1726.27  36.797  24.444
1726.77  36.797  24.475
1727.27  36.797  24.506
1727.77  36.733  24.475
1728.27  36.861  24.475
1728.77  36.797  24.444
1729.27  36.797  24.444
1729.77  36.733  24.475
1730.27  36.797  24.475
1730.77  36.861  24.506
1731.27  36.797  24.475
1731.77  36.797  24.444
1732.27  36.861  24.444
1732.77  36.797  24.444
1733.27  36.797  24.444
1733.77  36.797  24.444
1734.27  36.797  24.413
1734.77  36.797  24.444
1735.27  36.797  24.475
1735.77  36.797  24.444
1736.28  36.797  24.475
1736.78  36.797  24.475
1737.28  36.797  24.475
1737.78  36.861  24.444
1738.28  36.733  24.475
1738.78  36.733  24.506
1739.28  36.861  24.444
1739.78  36.797  24.506
1740.28  36.797  24.444
1740.78  36.797  24.444
1741.28  36.861  24.475
1741.78  36.861  24.475
1742.28  36.797  24.475
1742.78  36.797  24.444
1743.28  36.861  24.444
1743.78  36.925  24.475
1744.28  36.861  24.475
1744.78  36.797  24.444
1745.28  36.797  24.475
1745.78  36.797  24.444
1746.28  36.797  24.475
1746.78  36.861  24.444
1747.28  36.797  24.475
1747.78  36.733  24.475
1748.28  36.733  24.506
1748.78  36.797  24.444
1749.28  36.733  24.506
1749.78  36.861  24.475
1750.28  36.733  24.382
1750.78  36.861  24.506
1751.28  36.861  24.444
1751.78  36.861  24.475
1752.28  36.861  24.413
1752.78  36.797  24.444
1753.28  36.861  24.444
1753.78  36.861  24.475
1754.28  36.925  24.475
1754.78  36.797  24.475
1755.28  36.797  24.506
1755.78  36.861  24.444
1756.28  36.797  24.444
1756.78  36.797  24.444
1757.28  36.797  24.475
1757.78  36.861  24.444
1758.28  36.797  24.444
1758.78  36.797  24.475
1759.28  36.797  24.475
1759.78  36.797  24.475
1760.28  36.797  24.444
1760.78  36.797  24.506
1761.28  36.797  24.475
1761.78  36.861  24.475
1762.28  36.861  24.475
1762.78  36.797  24.475
1763.28  36.797  24.444
1763.78  36.861  24.475
1764.28  36.861  24.475
1764.78  36.797  24.413
1765.28  36.861  24.444
1765.78  36.861  24.444
1766.28  36.861  24.475
1766.78  36.797  24.475
1767.28  36.861  24.475
1767.78  36.861  24.444
1768.28  36.861  24.536
1768.78  36.861  24.444
1769.28  36.861  24.475
1769.78  36.861  24.475
1770.28  36.861  24.506
1770.78  36.861  24.475
1771.28  36.797  24.444
1771.78  36.861  24.444
1772.28  36.797  24.506
1772.78  36.733  24.475
1773.28  36.861  24.444
1773.78  36.861  24.444
1774.28  36.861  24.444
1774.78  36.861  24.444
1775.28  36.925  24.444
1775.78  36.861  24.506
1776.28  36.925  24.444
1776.78  36.861  24.444
1777.28  36.733  24.475
1777.78  36.797  24.444
1778.28  36.861  24.506
1778.78  36.925  24.444
1779.28  36.861  24.475
1779.78  36.925  24.475
1780.28  36.861  24.475
1780.78  36.797  24.506
1781.28  36.861  24.475
1781.78  36.861  24.475
1782.28  36.861  24.475
1782.78  36.861  24.444
1783.28  36.861  24.444
1783.78  36.861  24.444
1784.28  36.861  24.444
1784.78  36.861  24.475
1785.28  36.797  24.444
1785.78  36.861  24.444
1786.28  36.861  24.475
1786.78  36.861  24.475
1787.28  36.797  24.506
1787.78  36.861  24.475
1788.28  36.925  24.444
1788.78  36.861  24.475
1789.28  36.861  24.475
1789.78  36.925  24.506
1790.28  36.797  24.444
1790.78  36.861  24.475
1791.28  36.797  24.475
1791.78  36.797  24.475
1792.28  36.861  24.475
1792.78  36.861  24.475
1793.28  36.861  24.444
1793.78  36.861  24.382
1794.28  36.861  24.475
1794.78  36.861  24.444
1795.28  36.861  24.475
1795.78  36.733  24.475
1796.28  36.861  24.444
1796.78  36.925  24.475
1797.28  36.925  24.475
1797.78  36.797  24.475
1798.28  36.861  24.475
1798.78  36.861  24.475
1799.28  36.925  24.475
1799.78  36.925  24.444
1800.28  36.797  24.475
1800.78  36.989  24.506
1801.28  36.925  24.475
1801.78  36.861  24.475
1802.28  36.861  24.444
1802.78  36.861  24.475
1803.28  36.861  24.475
1803.78  36.861  24.475
1804.28  36.861  24.506
1804.78  36.861  24.444
1805.28  36.797  24.475
1805.78  36.861  24.444
1806.28  36.861  24.444
1806.78  36.925  24.475
1807.28  36.861  24.475
1807.78  36.861  24.444
1808.28  36.925  24.475
1808.78  36.861  24.475
1809.28  36.797  24.475
1809.78  36.861  24.444
1810.28  36.861  24.475
1810.78  36.989  24.475
1811.28  36.861  24.506
1811.78  36.861  24.444
1812.28  36.861  24.444
1812.78  36.925  24.475
1813.28  36.797  24.475
1813.78  36.861  24.444
1814.28  36.861  24.475
1814.78  36.861  24.475
1815.28  36.925  24.475
1815.78  36.925  24.475
1816.28  36.861  24.475
1816.78  36.925  24.475
1817.28  36.925  24.475
1817.78  36.861  24.475
1818.28  36.861  24.475
1818.78  36.861  24.475
1819.28  36.861  24.475
1819.78  36.925  24.506
1820.28  36.925  24.475
1820.78  36.861  24.475
1821.28  36.925  24.475
1821.78  36.925  24.475
1822.28  36.861  24.444
1822.78  36.925  24.475
1823.28  36.925  24.506
1823.78  36.797  24.475
1824.28  36.925  24.475
1824.78  36.861  24.475
1825.28  36.925  24.475
1825.78  36.925  24.506
1826.28  36.925  24.475
1826.78  36.925  24.475
1827.28  36.861  24.475
1827.78  36.861  24.475
1828.28  36.861  24.413
1828.78  36.925  24.475
1829.28  36.925  24.475
1829.78  36.925  24.444
1830.28  36.925  24.444
1830.78  36.925  24.475
1831.28  36.861  24.444
1831.78  36.925  24.475
1832.28  36.925  24.444
1832.78  36.797  24.413
1833.28  36.861  24.506
1833.78  36.925  24.475
1834.28  36.925  24.475
1834.78  36.925  24.506
1835.28  36.861  24.444
1835.78  36.861  24.475
1836.28  36.861  24.475
1836.78  36.925  24.475
1837.28  36.925  24.506
1837.78  36.861  24.475
1838.28  36.925  24.475
1838.78  36.925  24.475
1839.28  36.925  24.475
1839.78  36.925  24.475
1840.28  36.861  24.506
1840.78  36.925  24.413
1841.28  36.925  24.475
1841.78  36.925  24.475
1842.28  36.925  24.506
1842.78  36.925  24.475
1843.28  36.925  24.475
1843.78  36.925  24.475
1844.28  36.861  24.475
1844.78  36.925  24.444
1845.28  36.925  24.444
1845.78  36.925  24.444
1846.28  36.925  24.475
1846.78  36.861  24.475
1847.28  36.925  24.475
1847.78  36.925  24.475
1848.28  36.989  24.475
1848.78  36.925  24.475
1849.29  36.861  24.475
1849.79  36.925  24.444
1850.29  36.925  24.475
1850.79  36.861  24.475
1851.29  36.861  24.444
1851.79  36.861  24.475
1852.29  36.861  24.475
1852.79  36.925  24.475
1853.29  36.861  24.536
1853.79  36.861  24.475
1854.29  36.989  24.444
1854.79  36.797  24.444
1855.29  36.861  24.475
1855.79  36.925  24.506
1856.29  36.925  24.506
1856.79  36.925  24.475
1857.29  36.925  24.506
1857.79  36.925  24.475
1858.29  37.053  24.475
1858.79  36.925  24.475
1859.29  36.925  24.475
1859.79  36.925  24.475
1860.29  36.861  24.475
1860.79  36.861  24.475
1861.29  36.925  24.475
1861.79  36.925  24.475
1862.29  36.925  24.475
1862.79  36.925  24.506
1863.29  36.925  24.475
1863.79  36.925  24.444
1864.29  36.989  24.444
1864.79  36.925  24.475
1865.29  36.925  24.413
1865.79  36.925  24.444
1866.29  36.925  24.444
1866.79  36.925  24.444
1867.29  36.925  24.475
1867.79  36.925  24.475
1868.29  36.861  24.475
1868.79  36.925  24.444
1869.29  36.925  24.475
1869.79  36.925  24.444
1870.29  37.053  24.506
1870.79  36.925  24.475
1871.29  36.925  24.475
1871.79  36.989  24.413
1872.29  36.861  24.444
1872.79  36.925  24.413
1873.29  36.925  24.444
1873.79  36.925  24.444
1874.29  36.925  24.444
1874.79  36.925  24.506
1875.29  36.861  24.475
1875.79  36.925  24.444
1876.29  36.989  24.413
1876.79  36.925  24.444
1877.29  36.925  24.444
1877.79  36.925  24.475
1878.29  36.861  24.475
1878.79  36.925  24.475
1879.29  36.861  24.444
1879.79  36.797  24.475
1880.29  36.925  24.475
1880.79  36.925  24.444
1881.29  36.925  24.475
1881.79  36.925  24.506
1882.29  36.861  24.475
1882.79  36.925  24.413
1883.29  36.925  24.475
1883.79  36.925  24.475
1884.29  36.925  24.475
1884.79  36.925  24.475
1885.29  36.925  24.475
1885.79  36.925  24.444
1886.29  36.861  24.475
1886.79  36.925  24.475
1887.29  36.925  24.444
1887.79  36.925  24.444
1888.29  36.925  24.444
1888.79  36.989  24.444
1889.29  36.925  24.444
1889.79  36.989  24.475
1890.29  36.989  24.475
1890.79  36.925  24.475
1891.29  36.861  24.444
1891.79  36.925  24.475
1892.29  36.989  24.413
1892.79  36.925  24.444
1893.29  36.989  24.475
1893.79  36.925  24.475
1894.29  36.925  24.475
1894.79  36.925  24.475
1895.29  36.925  24.444
1895.79  36.925  24.506
1896.29  36.925  24.475
1896.79  36.861  24.475
1897.29  36.925  24.475
1897.79  36.925  24.475
1898.29  36.925  24.475
1898.79  36.861  24.475
1899.29  36.925  24.475
1899.79  36.861  24.475
1900.29  36.989  24.444
1900.79  36.989  24.444
1901.29  36.925  24.475
1901.79  36.925  24.444
1902.29  36.925  24.475
1902.79  36.925  24.444
1903.29  36.925  24.506
1903.79  36.925  24.475
1904.29  36.925  24.444
1904.79  36.925  24.475
1905.29  36.989  24.444
1905.79  36.925  24.475
1906.29  36.925  24.475
1906.79  36.925  24.444
1907.29  36.989  24.444
1907.79  36.925  24.444
1908.29  36.925  24.475
1908.79  36.861  24.475
1909.29  37.053  24.475
1909.79  36.925  24.475
1910.29  36.925  24.475
1910.79  36.989  24.475
1911.29  36.925  24.444
1911.79  36.989  24.444
1912.29  36.989  24.475
1912.79  36.989  24.506
1913.29  37.053  24.475
1913.79  36.925  24.475
1914.29  36.861  24.475
1914.79  36.989  24.413
1915.29  37.053  24.444
1915.79  36.989  24.475
1916.29  36.989  24.475
1916.79  36.989  24.475
1917.29  36.989  24.475
1917.79  36.925  24.475
1918.29  36.925  24.444
1918.79  36.989  24.475
1919.29  36.925  24.475
1919.79  36.989  24.506
1920.29  37.053  24.475
1920.79  37.053  24.475
1921.29  36.989  24.475
1921.79  36.861  24.444
1922.29  36.989  24.506
1922.79  36.925  24.475
1923.29  36.989  24.475
1923.79  36.989  24.444
1924.29  36.989  24.506
1924.79  36.989  24.475
1925.29  36.989  24.475
1925.79  36.989  24.475
1926.29  37.053  24.444
1926.79  36.925  24.506
1927.29  36.989  24.475
1927.79  36.925  24.475
1928.29  36.925  24.475
1928.79  36.925  24.475
1929.29  36.861  24.444
1929.79  36.989  24.506
1930.29  36.925  24.475
1930.79  37.053  24.475
1931.29  36.925  24.475
1931.79  36.989  24.444
1932.29  37.117  24.475
1932.79  36.989  24.506
1933.29  36.989  24.475
1933.79  36.925  24.444
1934.29  36.925  24.444
1934.79  36.989  24.475
1935.29  36.989  24.475
1935.79  36.989  24.444
1936.29  36.989  24.475
1936.79  36.989  24.506
1937.29  37.053  24.475
1937.79  36.989  24.475
1938.29  36.989  24.475
1938.79  37.053  24.475
1939.29  36.861  24.506
1939.79  36.989  24.475
1940.29  36.989  24.475
1940.79  36.989  24.475
1941.29  37.053  24.413
1941.79  36.989  24.475
1942.29  36.989  24.475
1942.79  36.925  24.475
1943.29  36.989  24.444
1943.79  36.925  24.475
1944.29  37.053  24.475
1944.79  36.989  24.475
1945.29  36.989  24.475
1945.79  36.925  24.444
1946.29  36.925  24.475
1946.79  36.989  24.475
1947.29  36.989  24.475
1947.79  36.925  24.444
1948.29  36.925  24.475
1948.79  36.925  24.506
1949.29  36.989  24.444
1949.79  36.989  24.475
1950.29  36.989  24.475
1950.79  37.053  24.506
1951.29  36.989  24.444
1951.79  36.989  24.475
1952.29  37.053  24.475
1952.79  36.989  24.475
1953.29  36.925  24.475
1953.79  36.989  24.475
1954.29  37.053  24.444
1954.79  36.989  24.506
1955.29  36.989  24.444
1955.79  36.989  24.475
1956.29  36.989  24.506
1956.79  36.989  24.506
1957.29  37.053  24.506
1957.79  36.989  24.444
1958.29  36.989  24.475
1958.79  36.925  24.475
1959.29  36.989  24.475
1959.79  37.053  24.475
1960.29  37.117  24.506
1960.79  36.925  24.506
1961.29  36.989  24.475
1961.79  36.925  24.475
1962.30  36.989  24.475
1962.80  36.989  24.475
1963.30  36.989  24.475
1963.80  37.053  24.475
1964.30  36.989  24.475
1964.80  37.053  24.444
1965.30  36.989  24.506
1965.80  36.989  24.444
1966.30  36.989  24.475
1966.80  36.989  24.475
1967.30  37.053  24.444
1967.80  36.925  24.475
1968.30  36.989  24.475
1968.80  36.989  24.475
1969.30  36.989  24.506
1969.80  36.989  24.475
1970.30  37.053  24.506
1970.80  37.053  24.475
1971.30  37.053  24.475
1971.80  37.053  24.475
1972.30  36.925  24.475
1972.80  36.989  24.506
1973.30  36.989  24.444
1973.80  36.989  24.475
1974.30  37.053  24.506
1974.80  36.989  24.475
1975.30  36.925  24.475
1975.80  36.989  24.506
1976.30  37.053  24.475
1976.80  37.053  24.506
1977.30  37.053  24.444
1977.80  36.989  24.506
1978.30  37.053  24.475
1978.80  36.989  24.506
1979.30  36.989  24.506
1979.80  37.053  24.475
1980.30  37.053  24.506
1980.80  36.989  24.382
1981.30  36.989  24.475
1981.80  36.989  24.506
1982.30  36.989  24.475
1982.80  36.989  24.475
1983.30  36.989  24.475
1983.80  37.053  24.444
1984.30  36.989  24.475
1984.80  36.989  24.475
1985.30  36.989  24.506
1985.80  37.053  24.536
1986.30  36.989  24.475
1986.80  36.989  24.475
1987.30  36.989  24.475
1987.80  36.989  24.475
1988.30  37.053  24.506
1988.80  36.989  24.475
1989.30  36.989  24.444
1989.80  36.989  24.444
1990.30  37.053  24.475
1990.80  37.117  24.475
1991.30  36.989  24.475
1991.80  36.989  24.475
1992.30  36.989  24.475
1992.80  36.989  24.506
1993.30  37.053  24.475
1993.80  36.989  24.475
1994.30  37.053  24.536
1994.80  37.053  24.475
1995.30  37.053  24.536
1995.80  36.989  24.475
1996.30  36.989  24.506
1996.80  36.989  24.506
1997.30  37.053  24.506
1997.80  36.989  24.444
1998.30  37.053  24.475
1998.80  36.989  24.475
1999.30  37.053  24.475
1999.80  36.989  24.444
2000.30  37.053  24.506
2000.80  37.053  24.475
2001.30  37.053  24.475
2001.80  36.989  24.506
2002.30  37.053  24.506
2002.80  36.989  24.475
2003.30  37.117  24.506
2003.80  37.053  24.475
2004.30  36.989  24.660
2004.80  37.053  24.475
2005.30  37.053  24.444
2005.80  36.989  24.475
2006.30  37.053  24.444
2006.80  37.117  24.475
2007.30  37.053  24.444
2007.80  37.053  24.475
2008.30  36.989  24.475
2008.80  36.989  24.475
2009.30  36.989  24.475
2009.80  37.053  24.475
2010.30  36.989  24.475
2010.80  37.053  24.475
2011.30  36.989  24.506
2011.80  37.053  24.475
2012.30  36.989  24.475
2012.80  37.117  24.475
2013.30  36.989  24.475
2013.80  36.989  24.475
2014.30  36.989  24.475
2014.80  37.053  24.475
2015.30  36.989  24.475
2015.80  36.989  24.475
2016.30  36.989  24.444
2016.80  36.925  24.475
2017.30  37.053  24.506
2017.80  36.989  24.475
2018.30  36.989  24.475
2018.80  37.053  24.475
2019.30  37.053  24.475
2019.80  37.053  24.506
2020.30  36.989  24.506
2020.80  37.053  24.506
2021.30  36.989  24.506
2021.80  37.053  24.475
2022.30  36.989  24.475
2022.80  37.053  24.475
2023.30  36.989  24.506
2023.80  37.053  24.475
2024.30  36.989  24.506
2024.80  37.053  24.475
2025.30  37.053  24.475
2025.80  36.989  24.444
2026.30  37.053  24.444
2026.80  37.053  24.475
2027.30  37.053  24.475
2027.80  37.053  24.475
2028.30  37.053  24.506
2028.80  37.053  24.475
2029.30  37.053  24.475
2029.80  37.053  24.475
2030.30  37.053  24.475
2030.80  37.053  24.506
2031.30  37.053  24.506
2031.80  37.117  24.475
2032.30  36.989  24.475
2032.80  37.053  24.475
2033.30  36.989  24.475
2033.80  37.053  24.506
2034.30  37.053  24.475
2034.80  36.989  24.444
2035.30  37.053  24.475
2035.80  37.053  24.475
2036.30  37.117  24.475
2036.80  36.989  24.475
2037.30  36.989  24.475
2037.80  37.053  24.444
2038.30  37.053  24.475
2038.80  37.053  24.475
2039.30  36.989  24.475
2039.80  37.053  24.475
2040.30  36.989  24.506
2040.80  37.053  24.506
2041.30  37.053  24.475
2041.80  37.117  24.506
2042.30  36.989  24.506
2042.80  37.053  24.444
2043.30  37.117  24.506
2043.80  37.053  24.475
2044.30  37.053  24.475
2044.80  37.053  24.506
2045.30  37.053  24.475
2045.80  37.181  24.475
2046.30  37.053  24.475
2046.80  37.117  24.506
2047.30  37.053  24.506
2047.80  37.053  24.475
2048.30  37.053  24.506
2048.80  37.053  24.506
2049.30  37.053  24.475
2049.80  36.989  24.506
2050.30  37.053  24.475
2050.80  37.053  24.475
2051.30  37.053  24.475
2051.80  37.053  24.506
2052.30  37.053  24.475
2052.80  37.053  24.506
2053.30  36.989  24.475
2053.80  37.117  24.475
2054.30  37.117  24.506
2054.80  37.053  24.444
2055.30  37.053  24.567
2055.80  37.053  24.475
2056.30  37.053  24.506
2056.80  37.053  24.506
2057.30  36.989  24.475
2057.80  37.053  24.475
2058.30  37.053  24.475
2058.80  37.117  24.475
2059.30  37.053  24.444
2059.80  36.989  24.475
2060.30  37.053  24.475
2060.80  36.989  24.475
2061.30  37.053  24.475
2061.80  37.053  24.444
2062.30  37.053  24.506
2062.80  37.117  24.444
2063.30  37.053  24.536
2063.80  37.053  24.506
2064.30  37.053  24.475
2064.80  37.053  24.444
2065.30  37.117  24.475
2065.80  36.989  24.444
2066.30  37.053  24.444
2066.80  37.053  24.475
2067.30  37.117  24.475
2067.80  37.053  24.444
2068.30  37.053  24.444
2068.80  37.053  24.444
2069.30  37.053  24.444
2069.80  37.117  24.475
2070.30  36.989  24.444
2070.80  37.053  24.475
2071.30  36.989  24.475
2071.80  36.989  24.444
2072.30  37.053  24.475
2072.80  36.989  24.475
2073.30  37.053  24.444
2073.80  37.117  24.475
2074.30  37.053  24.444
2074.80  36.989  24.506
2075.30  37.053  24.475
2075.80  37.053  24.506
2076.30  37.117  24.475
2076.80  37.053  24.475
2077.30  37.117  24.506
2077.80  37.117  24.475
2078.30  37.053  24.444
2078.80  36.989  24.475
2079.30  37.053  24.444
2079.80  37.053  24.475
2080.30  37.053  24.506
2080.80  37.053  24.475
2081.30  37.053  24.475
2081.80  36.989  24.475
2082.30  37.053  24.444
2082.80  37.181  24.475
2083.30  36.989  24.475
2083.80  37.117  24.475
2084.30  37.053  24.475
2084.80  37.053  24.444
2085.30  37.053  24.475
2085.80  37.117  24.506
2086.31  37.117  24.444
2086.81  37.053  24.475
2087.31  37.053  24.475
2087.81  37.053  24.475
2088.31  36.989  24.506
2088.81  37.053  24.475
2089.31  37.117  24.475
2089.81  37.053  24.475
2090.31  37.053  24.475
2090.81  37.117  24.506
2091.31  37.181  24.475
2091.81  37.053  24.506
2092.31  37.053  24.475
2092.81  37.053  24.475
2093.31  37.053  24.506
2093.81  37.053  24.444
2094.31  37.181  24.475
2094.81  37.053  24.475
2095.31  37.053  24.475
2095.81  37.181  24.475
2096.31  37.053  24.444
2096.81  37.117  24.475
2097.31  36.989  24.475
2097.81  37.053  24.506
2098.31  37.117  24.475
2098.81  37.053  24.475
2099.31  37.117  24.475
2099.81  36.989  24.475
2100.31  36.989  24.475
2100.81  37.181  24.444
2101.31  37.117  24.475
2101.81  37.053  24.475
2102.31  37.053  24.444
2102.81  37.117  24.444
2103.31  36.989  24.475
2103.81  37.117  24.475
2104.31  36.989  24.475
2104.81  37.117  24.475
2105.31  37.053  24.475
2105.81  37.117  24.506
2106.31  37.117  24.475
2106.81  37.117  24.475
2107.31  37.117  24.413
2107.81  37.053  24.475
2108.31  37.117  24.475
2108.81  37.181  24.475
2109.31  37.181  24.475
2109.81  37.117  24.506
2110.31  37.117  24.444
2110.81  37.117  24.475
2111.31  37.053  24.475
2111.81  37.181  24.475
2112.31  37.117  24.506
2112.81  37.053  24.475
2113.31  37.117  24.475
2113.81  37.117  24.475
2114.31  37.117  24.506
2114.81  37.053  24.475
2115.31  37.053  24.475
2115.81  37.117  24.444
2116.31  37.117  24.506
2116.81  37.117  24.506
2117.31  37.181  24.506
2117.81  36.989  24.444
2118.31  37.117  24.444
2118.81  36.989  24.475
2119.31  37.053  24.475
2119.81  36.989  24.444
2120.31  37.117  24.475
2120.81  37.053  24.506
2121.31  37.053  24.475
2121.81  37.053  24.475
2122.31  37.053  24.506
2122.81  37.117  24.475
2123.31  37.053  24.475
2123.81  37.117  24.475
2124.31  37.117  24.475
2124.81  36.989  24.475
2125.31  37.053  24.506
2125.81  37.053  24.444
2126.31  37.117  24.413
2126.81  37.117  24.506
2127.31  37.117  24.475
2127.81  37.117  24.475
2128.31  37.117  24.475
2128.81  37.117  24.475
2129.31  37.245  24.506
2129.81  37.053  24.506
2130.31  37.117  24.475
2130.81  37.117  24.444
2131.31  37.181  24.475
2131.81  37.117  24.475
2132.31  37.053  24.506
2132.81  37.117  24.506
2133.31  37.181  24.475
2133.81  37.053  24.475
2134.31  37.181  24.506
2134.81  37.053  24.475
2135.31  37.117  24.475
2135.81  37.117  24.444
2136.31  37.053  24.475
2136.81  37.117  24.536
2137.31  37.053  24.475
2137.81  37.053  24.475
2138.31  37.181  24.506
2138.81  37.117  24.475
2139.31  37.117  24.444
2139.81  37.117  24.444
2140.31  37.117  24.475
2140.81  37.117  24.475
2141.31  37.053  24.475
2141.81  37.053  24.475
2142.31  37.117  24.444
2142.81  37.117  24.506
2143.31  37.117  24.475
2143.81  37.117  24.506
2144.31  37.053  24.475
2144.81  37.117  24.506
2145.31  37.053  24.475
2145.81  37.053  24.475
2146.31  37.117  24.475
2146.81  37.117  24.475
2147.31  37.117  24.506
2147.81  36.989  24.444
2148.31  37.117  24.475
2148.81  36.989  24.475
2149.31  37.181  24.475
2149.81  37.117  24.444
2150.31  37.053  24.475
2150.81  37.181  24.475
2151.31  37.181  24.475
2151.81  37.053  24.475
2152.31  37.053  24.475
2152.81  37.181  24.444
2153.31  37.117  24.475
2153.81  37.117  24.475
2154.31  37.117  24.506
2154.81  37.053  24.506
2155.31  37.181  24.506
2155.81  37.117  24.506
2156.31  37.053  24.506
2156.81  37.181  24.444
2157.31  37.117  24.506
2157.81  37.053  24.475
2158.31  37.117  24.536
2158.81  37.373  24.475
2159.31  37.181  24.536
2159.81  37.181  24.506
2160.31  37.117  24.475
2160.81  37.117  24.475
2161.31  37.181  24.475
2161.81  37.117  24.475
2162.31  37.053  24.475
2162.81  37.053  24.475
2163.31  37.245  24.475
2163.81  37.053  24.506
2164.31  37.053  24.475
2164.81  37.117  24.475
2165.31  37.117  24.475
2165.81  37.117  24.475
2166.31  37.117  24.475
2166.81  37.053  24.475
2167.31  37.117  24.475
2167.81  37.053  24.536
2168.31  37.117  24.506
2168.81  37.053  24.475
2169.31  37.181  24.475
2169.81  37.053  24.475
2170.31  37.117  24.475
2170.81  37.053  24.475
2171.31  37.117  24.475
2171.81  37.181  24.506
2172.31  37.117  24.475
2172.81  37.245  24.506
2173.31  37.117  24.444
2173.81  37.181  24.475
2174.31  37.309  24.475
2174.81  37.181  24.475
2175.31  37.117  24.475
2175.81  37.053  24.506
2176.31  37.181  24.444
2176.81  37.117  24.506
2177.31  37.181  24.475
2177.81  37.117  24.506
2178.31  37.053  24.506
2178.81  37.117  24.475
2179.31  37.117  24.475
2179.81  37.181  24.536
2180.31  37.117  24.506
2180.81  37.181  24.475
2181.31  37.117  24.475
2181.81  37.117  24.475
2182.31  37.053  24.475
2182.81  37.181  24.475
2183.31  37.117  24.475
2183.81  37.117  24.506
2184.31  37.117  24.506
2184.81  37.117  24.475
2185.31  37.117  24.475
2185.81  37.181  24.444
2186.31  37.117  24.475
2186.81  37.181  24.475
2187.31  37.181  24.475
2187.81  37.181  24.506
2188.31  37.181  24.506
2188.82  37.181  24.475
2189.32  37.181  24.475
2189.82  37.117  24.475
2190.32  37.053  24.475
2190.82  37.181  24.506
2191.32  37.181  24.475
2191.82  37.309  24.475
2192.32  37.117  24.475
2192.82  37.117  24.506
2193.32  37.117  24.506
2193.82  37.117  24.475
2194.32  37.181  24.475
2194.82  37.053  24.475
2195.32  37.117  24.475
2195.82  37.117  24.506
2196.32  37.181  24.475
2196.82  37.181  24.475
2197.32  37.117  24.475
2197.82  37.181  24.444
2198.32  37.181  24.475
2198.82  37.181  24.475
2199.32  37.181  24.444
2199.82  37.117  24.506
2200.32  37.117  24.444
2200.82  37.181  24.475
2201.32  37.181  24.506
2201.82  37.181  24.475
2202.32  37.181  24.506
2202.82  37.181  24.475
2203.32  37.117  24.506
2203.82  37.053  24.475
2204.32  37.245  24.475
2204.82  37.181  24.506
2205.32  37.117  24.475
2205.82  37.181  24.506
2206.32  37.117  24.506
2206.82  37.181  24.506
2207.32  37.181  24.506
2207.82  37.181  24.506
2208.32  37.053  24.444
2208.82  37.181  24.506
2209.32  37.181  24.475
2209.82  37.117  24.444
2210.32  37.117  24.506
2210.82  37.117  24.475
2211.32  37.117  24.506
2211.82  37.181  24.475
2212.32  37.117  24.475
2212.82  37.181  24.475
2213.32  37.181  24.506
2213.82  37.117  24.536
2214.32  37.181  24.506
2214.82  37.181  24.506
2215.32  37.181  24.475
2215.82  37.181  24.475
2216.32  37.181  24.475
2216.82  37.245  24.475
2217.32  37.117  24.475
2217.82  37.181  24.475
2218.32  37.117  24.475
2218.82  37.181  24.475
2219.32  37.181  24.444
2219.82  37.245  24.506
2220.32  37.117  24.506
2220.82  37.053  24.536
2221.32  37.117  24.506
2221.82  37.181  24.444
2222.32  37.181  24.475
2222.82  37.117  24.506
2223.32  37.117  24.475
2223.82  37.117  24.475
2224.32  37.181  24.475
2224.82  37.181  24.444
2225.32  37.181  24.444
2225.82  37.181  24.444
2226.32  37.181  24.506
2226.82  37.181  24.475
2227.32  37.181  24.475
2227.82  37.117  24.506
2228.32  37.181  24.475
2228.82  37.117  24.475
2229.32  37.181  24.536
2229.82  37.117  24.475
2230.32  37.181  24.536
2230.82  37.117  24.475
2231.32  37.181  24.475
2231.82  37.181  24.475
2232.32  37.181  24.506
2232.82  37.181  24.475
2233.32  37.117  24.506
2233.82  37.181  24.475
2234.32  37.117  24.475
2234.82  37.181  24.506
2235.32  37.181  24.506
2235.82  37.245  24.475
2236.32  37.117  24.444
2236.82  37.117  24.475
2237.32  37.117  24.506
2237.82  37.117  24.475
2238.32  37.117  24.536
2238.82  37.181  24.475
2239.32  37.181  24.475
2239.82  37.117  24.475
2240.32  37.181  24.567
2240.82  37.181  24.506
2241.32  37.117  24.444
2241.82  37.117  24.506
2242.32  37.181  24.506
2242.82  37.053  24.506
2243.32  37.181  24.475
2243.82  37.181  24.475
2244.32  37.245  24.506
2244.82  37.181  24.475
2245.32  37.181  24.475
2245.82  37.181  24.475
2246.32  37.181  24.506
2246.82  37.117  24.475
2247.32  37.245  24.475
2247.82  37.053  24.475
2248.32  37.181  24.475
2248.82  37.117  24.475
2249.32  37.181  24.475
2249.82  37.053  24.475
2250.32  37.181  24.475
2250.82  37.117  24.475
2251.32  37.117  24.506
2251.82  37.181  24.475
2252.32  37.181  24.475
2252.82  37.181  24.506
2253.32  37.181  24.506
2253.82  37.181  24.475
2254.32  37.181  24.475
2254.82  37.117  24.475
2255.32  37.181  24.475
2255.82  37.117  24.475
2256.32  37.117  24.475
2256.82  37.117  24.475
2257.32  37.181  24.475
2257.82  37.181  24.475
2258.32  37.117  24.506
2258.82  37.245  24.475
2259.32  37.117  24.444
2259.82  37.181  24.475
2260.32  37.181  24.506
2260.82  37.117  24.506
2261.32  37.181  24.506
2261.82  37.181  24.444
2262.32  37.181  24.475
2262.82  37.181  24.506
2263.32  37.117  24.475
2263.82  37.181  24.536
2264.32  37.117  24.506
2264.82  37.181  24.475
2265.32  37.181  24.506
2265.82  37.181  24.475
2266.32  37.117  24.475
2266.82  37.181  24.506
2267.32  37.181  24.475
2267.82  37.181  24.475
2268.32  37.181  24.506
2268.82  37.181  24.506
2269.32  37.181  24.475
2269.82  37.053  24.475
2270.32  37.373  24.475
2270.82  37.181  24.475
2271.32  37.245  24.475
2271.82  37.181  24.475
2272.32  37.181  24.506
2272.82  37.181  24.444
2273.32  37.181  24.506
2273.82  37.181  24.475
2274.32  37.181  24.506
2274.82  37.245  24.475
2275.32  37.181  24.506
2275.82  37.181  24.506
2276.32  37.117  24.475
2276.82  37.181  24.506
2277.32  37.181  24.506
2277.82  37.181  24.567
2278.32  37.181  24.475
2278.82  37.181  24.475
2279.32  37.117  24.506
2279.82  37.181  24.506
2280.32  37.181  24.506
2280.82  37.117  24.506
2281.32  37.117  24.506
2281.82  37.181  24.475
2282.32  37.245  24.567
2282.82  37.181  24.475
2283.32  37.181  24.506
2283.82  37.181  24.475
2284.32  37.245  24.506
2284.82  37.181  24.506
2285.32  37.181  24.506
2285.82  37.181  24.506
2286.32  37.181  24.506
2286.82  37.245  24.475
2287.32  37.117  24.475
2287.82  37.245  24.506
2288.32  37.181  24.475
2288.82  37.181  24.506
2289.32  37.181  24.475
2289.82  37.181  24.506
2290.32  37.245  24.475
2290.82  37.181  24.475
2291.32  37.181  24.475
2291.82  37.245  24.475
2292.32  37.181  24.506
2292.82  37.181  24.506
2293.32  37.245  24.475
2293.82  37.181  24.506
2294.32  37.181  24.506
2294.82  37.181  24.506
2295.32  37.245  24.475
2295.82  37.181  24.475
2296.32  37.181  24.475
2296.82  37.117  24.475
2297.32  37.181  24.506
2297.82  37.181  24.506
2298.32  37.245  24.506
2298.82  37.245  24.506
2299.32  37.309  24.506
2299.82  37.181  24.506
2300.32  37.245  24.506
2300.82  37.181  24.506
2301.32  37.245  24.506
2301.82  37.181  24.506
2302.32  37.245  24.536
2302.82  37.309  24.506
2303.32  37.181  24.444
2303.82  37.181  24.475
2304.32  37.181  24.475
2304.82  37.181  24.475
2305.32  37.181  24.506
2305.82  37.245  24.444
2306.32  37.181  24.506
2306.82  37.181  24.506
2307.32  37.117  24.506
2307.82  37.245  24.506
2308.32  37.181  24.475
2308.82  37.181  24.475
2309.32  37.181  24.506
2309.82  37.245  24.506
2310.32  37.245  24.506
2310.82  37.181  24.506
2311.32  37.181  24.506
2311.82  37.245  24.506
2312.32  37.181  24.475
2312.83  37.245  24.506
2313.33  37.117  24.475
2313.83  37.245  24.475
2314.33  37.181  24.506
2314.83  37.181  24.475
2315.33  37.181  24.475
2315.83  37.181  24.475
2316.33  37.181  24.506
2316.83  37.181  24.506
2317.33  37.181  24.506
2317.83  37.181  24.444
2318.33  37.181  24.475
2318.83  37.181  24.444
2319.33  37.117  24.506
2319.83  37.181  24.475
2320.33  37.181  24.506
2320.83  37.181  24.506
2321.33  37.245  24.475
2321.83  37.117  24.506
2322.33  37.181  24.475
2322.83  37.181  24.506
2323.33  37.245  24.506
2323.83  37.181  24.506
2324.33  37.245  24.536
2324.83  37.181  24.475
2325.33  37.181  24.506
2325.83  37.181  24.506
2326.33  37.181  24.475
2326.83  37.181  24.506
2327.33  37.309  24.506
2327.83  37.181  24.506
2328.33  37.117  24.506
2328.83  37.181  24.475
2329.33  37.245  24.475
2329.83  37.245  24.475
2330.33  37.181  24.506
2330.83  37.309  24.567
2331.33  37.245  24.506
2331.83  37.245  24.475
2332.33  37.245  24.475
2332.83  37.181  24.444
2333.33  37.181  24.506
2333.83  37.245  24.506
2334.33  37.245  24.475
2334.83  37.245  24.506
2335.33  37.245  24.506
2335.83  37.245  24.506
2336.33  37.117  24.506
2336.83  37.245  24.506
2337.33  37.181  24.506
2337.83  37.245  24.506
2338.33  37.245  24.506
2338.83  37.245  24.506
2339.33  37.245  24.506
2339.83  37.245  24.506
2340.33  37.309  24.506
2340.83  37.117  24.506
2341.33  37.245  24.506
2341.83  37.245  24.536
2342.33  37.245  24.475
2342.83  37.245  24.506
2343.33  37.309  24.506
2343.83  37.245  24.506
2344.33  37.245  24.475
2344.83  37.245  24.506
2345.33  37.245  24.506
2345.83  37.245  24.475
2346.33  37.245  24.506
2346.83  37.245  24.536
2347.33  37.245  24.506
2347.83  37.245  24.506
2348.33  37.245  24.506
2348.83  37.245  24.506
2349.33  37.245  24.506
2349.83  37.245  24.506
2350.33  37.245  24.506
2350.83  37.245  24.475
2351.33  37.245  24.506
2351.83  37.181  24.506
2352.33  37.245  24.475
2352.83  37.245  24.475
2353.33  37.245  24.475
2353.83  37.181  24.506
2354.33  37.245  24.506
2354.83  37.245  24.475
2355.33  37.309  24.475
2355.83  37.309  24.475
2356.33  37.245  24.475
2356.83  37.245  24.475
2357.33  37.245  24.475
2357.83  37.245  24.506
2358.33  37.245  24.536
2358.83  37.117  24.506
2359.33  37.181  24.475
2359.83  37.309  24.475
2360.33  37.245  24.506
2360.83  37.181  24.506
2361.33  37.245  24.475
2361.83  37.245  24.475
2362.33  37.245  24.506
2362.83  37.181  24.506
2363.33  37.245  24.506
2363.83  37.309  24.475
2364.33  37.245  24.536
2364.83  37.181  24.475
2365.33  37.245  24.536
2365.83  37.245  24.475
2366.33  37.245  24.506
2366.83  37.245  24.444
2367.33  37.245  24.506
2367.83  37.245  24.506
2368.33  37.245  24.506
2368.83  37.245  24.506
2369.33  37.181  24.475
2369.83  37.245  24.475
2370.33  37.309  24.475
2370.83  37.181  24.475
2371.33  37.245  24.506
2371.83  37.245  24.475
2372.33  37.245  24.506
2372.83  37.181  24.475
2373.33  37.245  24.475
2373.83  37.245  24.475
2374.33  37.245  24.536
2374.83  37.309  24.536
2375.33  37.181  24.506
2375.83  37.181  24.475
2376.33  37.245  24.536
2376.83  37.245  24.506
2377.33  37.245  24.506
2377.83  37.245  24.506
2378.33  37.245  24.506
2378.83  37.245  24.475
2379.33  37.245  24.536
2379.83  37.245  24.506
2380.33  37.245  24.506
2380.83  37.245  24.506
2381.33  37.181  24.506
2381.83  37.181  24.475
2382.33  37.181  24.475
2382.83  37.373  24.506
2383.33  37.245  24.475
2383.83  37.437  24.506
2384.33  37.309  24.475
2384.83  37.181  24.506
2385.33  37.245  24.506
2385.83  37.309  24.506
2386.33  37.181  24.475
2386.83  37.245  24.475
2387.33  37.245  24.475
2387.83  37.245  24.506
2388.33  37.245  24.475
2388.83  37.181  24.506
2389.33  37.181  24.506
2389.83  37.245  24.506
2390.33  37.245  24.506
2390.83  37.117  24.506
2391.33  37.181  24.444
2391.83  37.245  24.475
2392.33  37.245  24.506
2392.83  37.245  24.475
2393.33  37.245  24.506
2393.83  37.181  24.536
2394.33  37.117  24.444
2394.83  37.245  24.506
2395.33  37.245  24.475
2395.83  37.245  24.475
2396.33  37.309  24.475
2396.83  37.245  24.475
2397.33  37.245  24.475
2397.83  37.309  24.475
2398.33  37.245  24.475
2398.83  37.245  24.506
2399.33  37.245  24.475
2399.83  37.245  24.475
2400.33  37.245  24.506
2400.83  37.245  24.475
2401.33  37.245  24.475
2401.83  37.309  24.475
2402.33  37.181  24.506
2402.83  37.245  24.506
2403.33  37.245  24.475
2403.83  37.309  24.506
2404.33  37.117  24.506
2404.83  37.245  24.536
2405.33  37.245  24.506
2405.83  37.373  24.506
2406.33  37.245  24.506
2406.83  37.245  24.506
2407.33  37.309  24.475
2407.83  37.309  24.506
2408.33  37.309  24.506
2408.83  37.309  24.506
2409.33  37.245  24.475
2409.83  37.245  24.475
2410.33  37.245  24.536
2410.83  37.309  24.506
2411.33  37.309  24.506
2411.83  37.245  24.506
2412.33  37.181  24.506
2412.83  37.309  24.506
2413.33  37.245  24.506
2413.83  37.309  24.506
2414.33  37.245  24.506
2414.84  37.245  24.506
2415.34  37.309  24.475
2415.84  37.309  24.506
2416.34  37.245  24.506
2416.84  37.245  24.536
2417.34  37.245  24.506
2417.84  37.309  24.506
2418.34  37.245  24.506
2418.84  37.245  24.475
2419.34  37.245  24.506
2419.84  37.245  24.506
2420.34  37.245  24.506
2420.84  37.181  24.506
2421.34  37.181  24.475
2421.84  37.309  24.475
2422.34  37.245  24.506
2422.84  37.245  24.506
2423.34  37.245  24.536
2423.84  37.245  24.506
2424.34  37.245  24.536
2424.84  37.245  24.567
2425.34  37.309  24.506
2425.84  37.245  24.536
2426.34  37.181  24.506
2426.84  37.245  24.475
2427.34  37.117  24.506
2427.84  37.245  24.475
2428.34  37.437  24.475
2428.84  37.245  24.506
2429.34  37.117  24.506
2429.84  37.309  24.506
2430.34  37.245  24.475
2430.84  37.245  24.536
2431.34  37.245  24.506
2431.84  37.245  24.506
2432.34  37.245  24.506
2432.84  37.245  24.536
2433.34  37.181  24.475
2433.84  37.181  24.506
2434.34  37.245  24.444
2434.84  37.245  24.475
2435.34  37.309  24.506
2435.84  37.245  24.506
2436.34  37.181  24.536
2436.84  37.245  24.506
2437.34  37.245  24.567
2437.84  37.309  24.475
2438.34  37.245  24.506
2438.84  37.245  24.536
2439.34  37.245  24.506
2439.84  37.181  24.475
2440.34  37.245  24.475
2440.84  37.245  24.506
2441.34  37.309  24.506
2441.84  37.245  24.506
2442.34  37.245  24.475
2442.84  37.309  24.506
2443.34  37.245  24.506
2443.84  37.309  24.536
2444.34  37.309  24.506
2444.84  37.117  24.444
2445.34  37.181  24.475
2445.84  37.245  24.475
2446.34  37.181  24.475
2446.84  37.245  24.506
2447.34  37.245  24.536
2447.84  37.181  24.506
2448.34  37.245  24.506
2448.84  37.245  24.506
2449.34  37.309  24.475
2449.84  37.245  24.475
2450.34  37.245  24.475
2450.84  37.245  24.444
2451.34  37.309  24.506
2451.84  37.309  24.506
2452.34  37.437  24.475
2452.84  37.245  24.506
2453.34  37.245  24.506
2453.84  37.373  24.475
2454.34  37.245  24.506
2454.84  37.245  24.475
2455.34  37.245  24.475
2455.84  37.309  24.506
2456.34  37.309  24.506
2456.84  37.245  24.536
2457.34  37.309  24.444
2457.84  37.181  24.506
2458.34  37.245  24.506
2458.84  37.309  24.475
2459.34  37.245  24.475
2459.84  37.309  24.475
2460.34  37.245  24.475
2460.84  37.245  24.506
2461.34  37.309  24.475
2461.84  37.245  24.536
2462.34  37.245  24.536
2462.84  37.245  24.506
2463.34  37.181  24.506
2463.84  37.309  24.506
2464.34  37.309  24.475
2464.84  37.309  24.506
2465.34  37.373  24.506
2465.84  37.245  24.475
2466.34  37.245  24.506
2466.84  37.181  24.536
2467.34  37.245  24.475
2467.84  37.245  24.506
2468.34  37.245  24.506
2468.84  37.245  24.475
2469.34  37.245  24.536
2469.84  37.245  24.506
2470.34  37.309  24.536
2470.84  37.245  24.475
2471.34  37.309  24.536
2471.84  37.309  24.506
2472.34  37.309  24.506
2472.84  37.245  24.506
2473.34  37.245  24.506
2473.84  37.245  24.506
2474.34  37.373  24.506
2474.84  37.309  24.506
2475.34  37.309  24.506
2475.84  37.245  24.506
2476.34  37.245  24.567
2476.84  37.245  24.475
2477.34  37.309  24.506
2477.84  37.309  24.536
2478.34  37.245  24.506
2478.84  37.373  24.506
2479.34  37.373  24.506
2479.84  37.245  24.536
2480.34  37.245  24.475
2480.84  37.245  24.506
2481.34  37.309  24.475
2481.84  37.309  24.475
2482.34  37.309  24.506
2482.84  37.309  24.506
2483.34  37.309  24.506
2483.84  37.309  24.506
2484.34  37.245  24.506
2484.84  37.373  24.506
2485.34  37.245  24.506
2485.84  37.309  24.475
2486.34  37.245  24.506
2486.84  37.309  24.506
2487.34  37.309  24.506
2487.84  37.309  24.444
2488.34  37.373  24.475
2488.84  37.309  24.506
2489.34  37.245  24.506
2489.84  37.309  24.506
2490.34  37.181  24.444
2490.84  37.245  24.506
2491.34  37.309  24.536
2491.84  37.245  24.506
2492.34  37.309  24.536
2492.84  37.245  24.506
2493.34  37.309  24.506
2493.84  37.245  24.506
2494.34  37.309  24.475
2494.84  37.309  24.475
2495.34  37.245  24.506
2495.84  37.245  24.506
2496.34  37.309  24.506
2496.84  37.309  24.475
2497.34  37.309  24.567
2497.84  37.309  24.506
2498.34  37.309  24.506
2498.84  37.309  24.506
2499.34  37.309  24.506
2499.84  37.309  24.506
2500.34  37.245  24.475
2500.84  37.309  24.506
2501.34  37.309  24.506
2501.84  37.309  24.475
2502.34  37.373  24.506
2502.84  37.181  24.536
2503.34  37.309  24.475
