   2.00  23.957  23.304
   2.50  23.931  23.273
   3.00  23.931  23.304
   3.50  23.931  23.273
   4.00  23.957  23.304
   4.50  23.905  23.304
   5.00  23.957  23.304
   5.50  23.931  23.304
   6.00  23.957  23.304
   6.50  23.931  23.304
   7.00  23.957  23.366
   7.50  23.957  23.304
   8.00  23.957  23.304
   8.50  23.931  23.304
   9.00  23.931  23.273
   9.50  23.931  23.273
  10.00  23.931  23.304
  10.50  23.931  23.304
  11.00  23.957  23.304
  11.50  23.957  23.273
  12.00  23.957  23.304
  12.50  23.957  23.304
  13.00  23.957  23.304
  13.50  23.957  23.304
  14.00  23.957  23.335
  14.50  23.983  23.304
  15.00  23.983  23.304
  15.50  24.009  23.304
  16.00  23.983  23.304
  16.50  23.957  23.304
  17.00  24.009  23.304
  17.50  24.009  23.335
  18.00  24.009  23.304
  18.50  24.009  23.304
  19.00  24.009  23.304
  19.50  23.983  23.304
  20.00  23.983  23.304
  20.50  24.009  23.304
  21.00  24.035  23.304
  21.50  24.035  23.335
  22.00  24.035  23.304
  22.50  24.009  23.335
  23.00  24.035  23.335
  23.50  24.035  23.304
  24.00  24.009  23.304
  24.50  24.035  23.304
  25.00  24.061  23.335
  25.50  24.087  23.335
  26.00  24.061  23.304
  26.50  24.009  23.335
  27.00  24.087  23.273
  27.50  24.087  23.273
  28.00  24.113  23.335
  28.50  24.087  23.304
  29.00  24.087  23.304
  29.50  24.087  23.304
  30.00  24.140  23.335
  30.50  24.087  23.335
  31.00  24.087  23.304
  31.50  24.087  23.366
  32.00  24.087  23.335
  32.50  24.087  23.304
  33.00  24.087  23.304
  33.50  24.087  23.335
  34.00  24.087  23.366
  34.50  24.113  23.335
  35.00  24.113  23.335
  35.50  24.113  23.304
  36.00  24.087  23.304
  36.50  24.113  23.335
  37.00  24.113  23.335
  37.50  24.113  23.335
  38.00  24.140  23.335
  38.50  24.140  23.335
  39.00  24.113  23.304
  39.50  24.140  23.304
  40.00  24.166  23.304
  40.50  24.166  23.304
  41.00  24.140  23.304
  41.50  24.113  23.304
  42.00  24.192  23.242
  42.50  24.166  23.304
  43.00  24.166  23.304
  43.50  24.192  23.366
  44.00  24.192  23.335
  44.50  24.166  23.335
  45.00  24.166  23.366
  45.50  24.218  23.335
  46.00  24.192  23.335
  46.50  24.192  23.304
  47.00  24.166  23.366
  47.51  24.192  23.366
  48.01  24.218  23.335
  48.51  24.192  23.335
  49.01  24.192  23.304
  49.51  24.244  23.335
  50.01  24.270  23.366
  50.51  24.270  23.335
  51.01  24.244  23.335
  51.51  24.192  23.335
  52.01  24.244  23.366
  52.51  24.244  23.335
  53.01  24.244  23.335
  53.51  24.270  23.335
  54.01  24.270  23.335
  54.51  24.270  23.335
  55.01  24.244  23.335
  55.51  24.270  23.304
  56.01  24.270  23.335
  56.51  24.270  23.273
  57.01  24.270  23.366
  57.51  24.270  23.366
  58.01  24.322  23.335
  58.51  24.270  23.335
  59.01  24.296  23.335
  59.51  24.270  23.335
  60.01  24.348  23.366
  60.51  24.322  23.366
  61.01  24.296  23.335
  61.51  24.322  23.335
  62.01  24.322  23.304
  62.51  24.322  23.335
  63.01  24.322  23.366
  63.51  24.322  23.335
  64.01  24.322  23.366
  64.51  24.375  23.335
  65.01  24.348  23.335
  65.51  24.375  23.335
  66.01  24.348  23.396
  66.51  24.348  23.366
  67.01  24.348  23.335
  67.51  24.322  23.366
  68.01  24.375  23.335
  68.51  24.348  23.335
  69.01  24.375  23.366
  69.51  24.348  23.366
  70.01  24.375  23.335
  70.51  24.322  23.335
  71.01  24.401  23.335
  71.51  24.375  23.335
  72.01  24.401  23.335
  72.51  24.375  23.304
  73.01  24.401  23.366
  73.51  24.427  23.366
  74.01  24.401  23.366
  74.51  24.401  23.335
  75.01  24.401  23.335
  75.51  24.401  23.335
  76.01  24.401  23.366
  76.51  24.453  23.366
  77.01  24.453  23.366
  77.51  24.375  23.366
  78.01  24.453  23.335
  78.51  24.453  23.335
  79.01  24.453  23.304
  79.51  24.401  23.335
  80.01  24.401  23.335
  80.51  24.453  23.335
  81.01  24.427  23.366
  81.51  24.427  23.304
  82.01  24.479  23.335
  82.51  24.453  23.366
  83.01  24.453  23.335
  83.51  24.479  23.304
  84.01  24.427  23.366
  84.51  24.479  23.366
  85.01  24.479  23.273
  85.51  24.479  23.366
  86.01  24.479  23.335
  86.51  24.479  23.335
  87.01  24.479  23.335
  87.51  24.505  23.366
  88.01  24.479  23.366
  88.51  24.531  23.335
  89.01  24.505  23.335
  89.51  24.505  23.335
  90.01  24.531  23.366
  90.51  24.557  23.366
  91.01  24.531  23.335
  91.51  24.531  23.335
  92.01  24.531  23.366
  92.51  24.505  23.335
  93.01  24.557  23.366
  93.51  24.583  23.366
  94.01  24.557  23.335
  94.51  24.531  23.335
  95.01  24.557  23.366
  95.51  24.557  23.335
  96.01  24.557  23.366
  96.51  24.583  23.335
  97.01  24.583  23.366
  97.51  24.583  23.335
  98.01  24.583  23.366
  98.51  24.583  23.366
  99.01  24.557  23.366
  99.51  24.610  23.304
 100.01  24.583  23.335
 100.51  24.583  23.335
 101.01  24.610  23.366
 101.51  24.610  23.335
 102.01  24.610  23.335
 102.51  24.636  23.366
 103.01  24.610  23.335
 103.51  24.610  23.366
 104.01  24.610  23.396
 104.51  24.610  23.366
 105.01  24.636  23.366
 105.51  24.662  23.335
 106.01  24.636  23.335
 106.51  24.636  23.335
 107.01  24.636  23.335
 107.51  24.636  23.366
 108.01  24.662  23.335
 108.51  24.636  23.335
 109.01  24.662  23.335
 109.51  24.662  23.366
 110.01  24.662  23.335
 110.51  24.662  23.366
 111.01  24.662  23.335
 111.51  24.662  23.335
 112.01  24.662  23.335
 112.51  24.662  23.366
 113.01  24.662  23.366
 113.51  24.714  23.366
 114.01  24.688  23.335
 114.51  24.688  23.366
 115.01  24.688  23.366
 115.51  24.662  23.335
 116.01  24.714  23.366
 116.51  24.714  23.366
 117.01  24.662  23.396
 117.51  24.714  23.366
 118.01  24.714  23.335
 118.51  24.688  23.335
 119.01  24.688  23.366
 119.51  24.714  23.366
 120.01  24.714  23.335
 120.51  24.740  23.335
 121.01  24.714  23.366
 121.51  24.740  23.335
 122.01  24.714  23.335
 122.51  24.714  23.335
 123.01  24.766  23.366
 123.51  24.740  23.366
 124.01  24.740  23.366
 124.51  24.714  23.366
 125.01  24.740  23.366
 125.51  24.714  23.335
 126.01  24.714  23.335
 126.51  24.740  23.366
 127.01  24.766  23.335
 127.51  24.792  23.335
 128.01  24.792  23.335
 128.51  24.766  23.366
 129.01  24.766  23.366
 129.51  24.766  23.396
 130.01  24.766  23.335
 130.51  24.766  23.335
 131.01  24.792  23.366
 131.51  24.766  23.366
 132.01  24.792  23.396
 132.51  24.792  23.366
 133.01  24.766  23.366
 133.51  24.819  23.273
 134.01  24.792  23.366
 134.51  24.819  23.366
 135.01  24.819  23.335
 135.51  24.871  23.366
 136.01  24.819  23.335
 136.51  24.819  23.396
 137.01  24.819  23.366
 137.51  24.792  23.335
 138.01  24.845  23.366
 138.51  24.845  23.366
 139.01  24.845  23.366
 139.51  24.845  23.366
 140.01  24.871  23.366
 140.51  24.845  23.366
 141.01  24.819  23.335
 141.51  24.845  23.335
 142.01  24.871  23.335
 142.51  24.871  23.366
 143.01  24.897  23.366
 143.51  24.923  23.335
 144.01  24.871  23.366
 144.51  24.871  23.366
 145.01  24.897  23.335
 145.51  24.819  23.335
 146.01  24.871  23.335
 146.51  24.871  23.304
 147.01  24.897  23.366
 147.51  24.897  23.366
 148.01  24.871  23.366
 148.51  24.923  23.335
 149.01  24.897  23.335
 149.51  24.897  23.396
 150.01  24.897  23.335
 150.51  24.897  23.335
 151.01  24.923  23.396
 151.51  24.923  23.366
 152.01  24.923  23.396
 152.51  24.923  23.366
 153.01  24.923  23.366
 153.51  24.923  23.396
 154.01  24.923  23.366
 154.51  24.949  23.396
 155.01  24.949  23.366
 155.51  24.897  23.366
 156.01  24.923  23.335
 156.51  24.949  23.396
 157.01  24.949  23.396
 157.51  24.949  23.366
 158.01  24.923  23.366
 158.51  24.949  23.366
 159.01  24.975  23.366
 159.51  24.949  23.396
 160.01  24.975  23.366
 160.51  25.005  23.366
 161.01  24.975  23.366
 161.51  25.005  23.366
 162.01  24.975  23.335
 162.51  24.975  23.366
 163.01  24.975  23.396
 163.51  24.975  23.396
 164.01  24.975  23.366
 164.51  25.005  23.366
 165.01  25.114  23.366
 165.51  25.114  23.396
 166.01  24.975  23.335
 166.51  25.222  23.396
 167.01  25.114  23.366
 167.51  25.222  23.396
 168.01  25.005  23.396
 168.51  25.114  23.396
 169.01  25.114  23.396
 169.51  25.114  23.366
 170.01  25.222  23.396
 170.51  25.222  23.366
 171.01  25.222  23.366
 171.52  25.222  23.396
 172.02  25.114  23.427
 172.52  25.222  23.396
 173.02  25.222  23.366
 173.52  25.222  23.396
 174.02  25.222  23.366
 174.52  25.222  23.427
 175.02  25.222  23.396
 175.52  25.222  23.366
 176.02  25.330  23.396
 176.52  25.005  23.396
 177.02  25.330  23.366
 177.52  25.222  23.396
 178.02  25.330  23.396
 178.52  25.330  23.396
 179.02  25.438  23.396
 179.52  25.330  23.396
 180.02  25.330  23.366
 180.52  25.438  23.366
 181.02  25.330  23.396
 181.52  25.330  23.396
 182.02  25.330  23.396
 182.52  25.547  23.366
 183.02  25.547  23.366
 183.52  25.547  23.396
 184.02  25.547  23.366
 184.52  25.655  23.396
 185.02  25.438  23.335
 185.52  25.438  23.396
 186.02  25.438  23.396
 186.52  25.438  23.396
 187.02  25.547  23.396
 187.52  25.438  23.396
 188.02  25.547  23.396
 188.52  25.763  23.366
 189.02  25.547  23.366
 189.52  25.547  23.396
 190.02  25.222  23.366
 190.52  25.547  23.396
 191.02  25.547  23.366
 191.52  25.547  23.366
 192.02  25.547  23.366
 192.52  25.655  23.396
 193.02  25.763  23.396
 193.52  25.655  23.366
 194.02  25.763  23.366
 194.52  25.763  23.396
 195.02  25.763  23.366
 195.52  25.655  23.396
 196.02  25.655  23.396
 196.52  25.763  23.366
 197.02  25.763  23.366
 197.52  25.655  23.396
 198.02  25.655  23.366
 198.52  25.763  23.396
 199.02  25.763  23.366
 199.52  25.763  23.366
 200.02  25.763  23.366
 200.52  25.763  23.396
 201.02  25.871  23.366
 201.52  25.763  23.396
 202.02  25.871  23.427
 202.52  25.871  23.366
 203.02  25.980  23.396
 203.52  25.980  23.366
 204.02  25.871  23.396
 204.52  25.871  23.427
 205.02  25.980  23.396
 205.52  25.871  23.366
 206.02  25.871  23.396
 206.52  25.980  23.396
 207.02  25.980  23.366
 207.52  25.980  23.366
 208.02  26.196  23.396
 208.52  25.980  23.396
 209.02  25.980  23.427
 209.52  25.980  23.396
 210.02  26.088  23.396
 210.52  25.871  23.396
 211.02  26.088  23.396
 211.52  25.980  23.396
 212.02  26.088  23.366
 212.52  25.980  23.396
 213.02  26.088  23.396
 213.52  25.980  23.396
 214.02  26.088  23.396
 214.52  26.196  23.458
 215.02  26.088  23.396
 215.52  26.196  23.427
 216.02  26.196  23.396
 216.52  26.196  23.396
 217.02  26.196  23.458
 217.52  26.413  23.366
 218.02  26.088  23.396
 218.52  25.980  23.396
 219.02  26.088  23.366
 219.52  26.304  23.366
 220.02  26.196  23.427
 220.52  26.196  23.396
 221.02  26.196  23.366
 221.52  26.304  23.396
 222.02  26.196  23.396
 222.52  26.304  23.396
 223.02  26.304  23.396
 223.52  26.196  23.366
 224.02  26.088  23.396
 224.52  26.304  23.396
 225.02  26.304  23.396
 225.52  26.304  23.396
 226.02  26.196  23.366
 226.52  26.304  23.366
 227.02  26.304  23.396
 227.52  26.304  23.366
 228.02  26.413  23.396
 228.52  26.413  23.396
 229.02  26.521  23.366
 229.52  26.413  23.427
 230.02  26.304  23.427
 230.52  26.413  23.396
 231.02  26.629  23.396
 231.52  26.629  23.396
 232.02  26.521  23.396
 232.52  26.304  23.396
 233.02  26.521  23.366
 233.52  26.521  23.396
 234.02  26.413  23.396
 234.52  26.521  23.396
 235.02  26.521  23.396
 235.52  26.521  23.366
 236.02  26.521  23.396
 236.52  26.629  23.396
 237.02  26.521  23.396
 237.52  26.737  23.396
 238.02  26.629  23.396
 238.52  26.629  23.396
 239.02  26.413  23.396
 239.52  26.737  23.366
 240.02  26.629  23.335
 240.52  26.629  23.396
 241.02  26.629  23.396
 241.52  26.629  23.396
 242.02  26.846  23.427
 242.52  26.629  23.366
 243.02  26.629  23.396
 243.52  26.629  23.396
 244.02  26.629  23.427
 244.52  26.737  23.335
 245.02  26.737  23.396
 245.52  26.846  23.366
 246.02  26.737  23.366
 246.52  27.170  23.396
 247.02  26.737  23.427
 247.52  26.737  23.396
 248.02  26.846  23.396
 248.52  26.846  23.396
 249.02  26.737  23.396
 249.52  26.846  23.427
 250.02  26.737  23.396
 250.52  26.629  23.396
 251.02  26.954  23.396
 251.52  26.954  23.396
 252.02  26.846  23.427
 252.52  26.846  23.427
 253.02  26.846  23.396
 253.52  27.062  23.396
 254.02  26.737  23.366
 254.52  27.170  23.396
 255.02  26.954  23.396
 255.52  27.062  23.396
 256.02  26.954  23.396
 256.52  26.954  23.396
 257.02  26.954  23.458
 257.52  27.062  23.366
 258.02  26.954  23.396
 258.52  27.062  23.396
 259.02  26.954  23.396
 259.52  26.954  23.396
 260.02  27.062  23.396
 260.52  27.062  23.427
 261.02  26.954  23.396
 261.52  27.062  23.427
 262.02  27.170  23.427
 262.52  26.954  23.396
 263.02  27.170  23.396
 263.52  26.954  23.427
 264.02  27.062  23.396
 264.52  27.062  23.396
 265.02  27.062  23.396
 265.52  27.279  23.396
 266.02  27.062  23.396
 266.52  27.170  23.427
 267.02  27.279  23.396
 267.52  27.170  23.396
 268.02  27.170  23.396
 268.52  27.170  23.396
 269.02  27.279  23.396
 269.52  27.170  23.396
 270.02  27.279  23.396
 270.52  27.279  23.427
 271.02  27.387  23.396
 271.52  27.279  23.396
 272.02  27.279  23.396
 272.52  27.279  23.396
 273.02  27.279  23.396
 273.52  27.279  23.396
 274.02  27.279  23.427
 274.52  27.387  23.396
 275.02  27.387  23.366
 275.52  27.279  23.427
 276.02  27.279  23.396
 276.52  27.387  23.427
 277.02  27.279  23.396
 277.52  27.387  23.458
 278.02  27.387  23.396
 278.52  27.387  23.396
 279.02  27.387  23.396
 279.52  27.387  23.396
 280.02  27.387  23.396
 280.52  27.279  23.427
 281.02  27.495  23.396
 281.52  27.495  23.427
 282.02  27.387  23.396
 282.52  27.387  23.335
 283.02  27.387  23.427
 283.52  27.387  23.396
 284.02  27.387  23.396
 284.52  27.495  23.366
 285.03  27.603  23.396
 285.53  27.495  23.427
 286.03  27.603  23.396
 286.53  27.495  23.396
 287.03  27.495  23.396
 287.53  27.495  23.396
 288.03  27.603  23.427
 288.53  27.603  23.396
 289.03  27.495  23.396
 289.53  27.603  23.396
 290.03  27.495  23.427
 290.53  27.603  23.366
 291.03  27.603  23.427
 291.53  27.712  23.396
 292.03  27.603  23.366
 292.53  27.712  23.396
 293.03  27.603  23.427
 293.53  27.603  23.427
 294.03  27.603  23.396
 294.53  27.603  23.427
 295.03  27.603  23.396
 295.53  27.495  23.396
 296.03  27.820  23.427
 296.53  27.712  23.427
 297.03  27.712  23.427
 297.53  27.603  23.396
 298.03  27.603  23.427
 298.53  27.603  23.396
 299.03  27.712  23.396
 299.53  27.712  23.396
 300.03  27.820  23.396
 300.53  27.712  23.427
 301.03  27.712  23.396
 301.53  27.712  23.396
 302.03  27.712  23.396
 302.53  27.820  23.366
 303.03  27.820  23.427
 303.53  27.712  23.396
 304.03  27.820  23.396
 304.53  27.712  23.427
 305.03  27.820  23.427
 305.53  27.603  23.427
 306.03  27.820  23.520
 306.53  27.712  23.396
 307.03  27.820  23.427
 307.53  27.820  23.396
 308.03  27.820  23.427
 308.53  27.820  23.396
 309.03  27.820  23.427
 309.53  27.928  23.427
 310.03  27.928  23.396
 310.53  27.928  23.427
 311.03  27.928  23.427
 311.53  27.928  23.396
 312.03  27.820  23.458
 312.53  27.820  23.427
 313.03  27.928  23.427
 313.53  28.036  23.396
 314.03  27.928  23.366
 314.53  28.036  23.427
 315.03  27.928  23.396
 315.53  27.928  23.427
 316.03  28.036  23.366
 316.53  28.036  23.396
 317.03  28.036  23.427
 317.53  27.928  23.427
 318.03  28.036  23.427
 318.53  28.145  23.458
 319.03  28.145  23.396
 319.53  28.145  23.427
 320.03  28.036  23.427
 320.53  28.036  23.427
 321.03  27.928  23.427
 321.53  28.145  23.396
 322.03  28.036  23.396
 322.53  28.036  23.427
 323.03  28.145  23.396
 323.53  27.928  23.396
 324.03  28.145  23.427
 324.53  28.145  23.396
 325.03  28.253  23.396
 325.53  28.145  23.458
 326.03  28.036  23.396
 326.53  28.145  23.427
 327.03  28.253  23.427
 327.53  28.036  23.396
 328.03  28.253  23.427
 328.53  28.145  23.396
 329.03  28.253  23.427
 329.53  28.361  23.458
 330.03  28.253  23.427
 330.53  28.361  23.427
 331.03  28.253  23.427
 331.53  28.361  23.427
 332.03  28.253  23.427
 332.53  28.253  23.427
 333.03  28.253  23.458
 333.53  28.361  23.396
 334.03  28.361  23.427
 334.53  28.361  23.427
 335.03  28.361  23.427
 335.53  28.361  23.458
 336.03  28.253  23.396
 336.53  28.469  23.427
 337.03  28.361  23.427
 337.53  28.361  23.366
 338.03  28.253  23.427
 338.53  28.361  23.427
 339.03  28.469  23.427
 339.53  28.361  23.427
 340.03  28.361  23.427
 340.53  28.469  23.458
 341.03  28.469  23.427
 341.53  28.469  23.427
 342.03  28.469  23.458
 342.53  28.361  23.427
 343.03  28.469  23.458
 343.53  28.469  23.427
 344.03  28.469  23.427
 344.53  28.469  23.427
 345.03  28.469  23.427
 345.53  28.469  23.396
 346.03  28.578  23.427
 346.53  28.469  23.427
 347.03  28.469  23.427
 347.53  28.469  23.396
 348.03  28.686  23.396
 348.53  28.469  23.396
 349.03  28.469  23.427
 349.53  28.686  23.458
 350.03  28.578  23.427
 350.53  28.469  23.396
 351.03  28.578  23.396
 351.53  28.578  23.396
 352.03  28.686  23.427
 352.53  28.469  23.427
 353.03  28.578  23.458
 353.53  28.578  23.396
 354.03  28.578  23.396
 354.53  28.469  23.427
 355.03  28.469  23.427
 355.53  28.578  23.427
 356.03  28.578  23.396
 356.53  28.578  23.427
 357.03  28.686  23.427
 357.53  28.686  23.458
 358.03  28.686  23.427
 358.53  28.686  23.427
 359.03  28.578  23.427
 359.53  28.578  23.427
 360.03  28.686  23.427
 360.53  28.686  23.396
 361.03  28.686  23.396
 361.53  28.794  23.427
 362.03  28.794  23.427
 362.53  28.902  23.427
 363.03  28.902  23.427
 363.53  28.794  23.427
 364.03  28.902  23.427
 364.53  28.686  23.427
 365.03  28.794  23.396
 365.53  28.686  23.396
 366.03  28.794  23.427
 366.53  28.794  23.427
 367.03  28.794  23.458
 367.53  28.794  23.427
 368.03  28.794  23.458
 368.53  28.794  23.489
 369.03  28.686  23.427
 369.53  28.902  23.427
 370.03  28.902  23.427
 370.53  28.686  23.427
 371.03  28.902  23.427
 371.53  28.902  23.427
 372.03  28.902  23.427
 372.53  28.902  23.427
 373.03  28.902  23.427
 373.53  28.902  23.427
 374.03  28.902  23.458
 374.53  28.902  23.427
 375.03  29.011  23.458
 375.53  29.227  23.458
 376.03  28.902  23.427
 376.53  29.119  23.427
 377.03  29.011  23.489
 377.53  29.011  23.427
 378.03  28.902  23.427
 378.53  28.794  23.396
 379.03  29.011  23.458
 379.53  29.011  23.427
 380.03  29.011  23.458
 380.53  29.119  23.427
 381.03  29.119  23.366
 381.53  29.011  23.396
 382.03  28.902  23.427
 382.53  29.011  23.396
 383.03  29.119  23.458
 383.53  29.011  23.427
 384.03  29.119  23.427
 384.53  29.011  23.427
 385.03  29.011  23.427
 385.53  29.119  23.458
 386.03  29.119  23.458
 386.53  29.119  23.427
 387.04  29.119  23.458
 387.54  29.227  23.427
 388.04  29.444  23.458
 388.54  29.119  23.427
 389.04  29.227  23.427
 389.54  29.119  23.427
 390.04  29.444  23.427
 390.54  29.227  23.427
 391.04  29.227  23.427
 391.54  29.227  23.427
 392.04  29.335  23.427
 392.54  29.227  23.427
 393.04  29.119  23.427
 393.54  29.227  23.489
 394.04  29.227  23.489
 394.54  29.227  23.458
 395.04  29.335  23.427
 395.54  29.335  23.427
 396.04  29.227  23.427
 396.54  29.227  23.458
 397.04  29.227  23.458
 397.54  29.119  23.458
 398.04  29.335  23.427
 398.54  29.335  23.458
 399.04  29.335  23.458
 399.54  29.335  23.427
 400.04  29.335  23.458
 400.54  29.227  23.458
 401.04  29.335  23.427
 401.54  29.335  23.427
 402.04  29.335  23.427
 402.54  29.335  23.458
 403.04  29.227  23.489
 403.54  29.335  23.427
 404.04  29.335  23.427
 404.54  29.335  23.427
 405.04  29.444  23.458
 405.54  29.335  23.427
 406.04  29.335  23.427
 406.54  29.444  23.458
 407.04  29.335  23.458
 407.54  29.335  23.458
 408.04  29.444  23.427
 408.54  29.444  23.396
 409.04  29.335  23.396
 409.54  29.660  23.458
 410.04  29.444  23.427
 410.54  29.444  23.427
 411.04  29.444  23.427
 411.54  29.444  23.427
 412.04  29.335  23.427
 412.54  29.444  23.427
 413.04  29.552  23.489
 413.54  29.444  23.427
 414.04  29.552  23.427
 414.54  29.444  23.458
 415.04  29.552  23.427
 415.54  29.552  23.458
 416.04  29.660  23.520
 416.54  29.552  23.427
 417.04  29.552  23.427
 417.54  29.552  23.427
 418.04  29.552  23.427
 418.54  29.552  23.427
 419.04  29.552  23.458
 419.54  29.444  23.427
 420.04  29.552  23.458
 420.54  29.660  23.427
 421.04  29.552  23.489
 421.54  29.660  23.427
 422.04  29.660  23.458
 422.54  29.660  23.489
 423.04  29.552  23.458
 423.54  29.660  23.458
 424.04  29.660  23.458
 424.54  29.552  23.396
 425.04  29.768  23.458
 425.54  29.660  23.458
 426.04  29.660  23.427
 426.54  29.660  23.427
 427.04  29.660  23.427
 427.54  29.660  23.427
 428.04  29.660  23.427
 428.54  29.768  23.427
 429.04  29.768  23.458
 429.54  29.768  23.458
 430.04  29.768  23.458
 430.54  29.660  23.489
 431.04  29.768  23.458
 431.54  29.768  23.458
 432.04  29.660  23.427
 432.54  29.768  23.427
 433.04  29.660  23.427
 433.54  29.768  23.427
 434.04  29.660  23.489
 434.54  29.877  23.427
 435.04  29.768  23.458
 435.54  29.768  23.427
 436.04  29.877  23.427
 436.54  29.768  23.427
 437.04  29.877  23.458
 437.54  29.877  23.458
 438.04  29.768  23.427
 438.54  29.660  23.427
 439.04  29.768  23.458
 439.54  29.768  23.427
 440.04  29.877  23.427
 440.54  29.877  23.458
 441.04  29.877  23.458
 441.54  29.768  23.458
 442.04  29.877  23.458
 442.54  29.877  23.458
 443.04  29.877  23.458
 443.54  29.877  23.458
 444.04  29.985  23.458
 444.54  29.877  23.427
 445.04  29.877  23.427
 445.54  29.877  23.458
 446.04  29.877  23.458
 446.54  29.877  23.458
 447.04  29.985  23.427
 447.54  29.768  23.427
 448.04  29.877  23.427
 448.54  29.877  23.458
 449.04  29.877  23.458
 449.54  29.877  23.427
 450.04  29.985  23.427
 450.54  29.877  23.427
 451.04  29.877  23.427
 451.54  30.101  23.458
 452.04  29.985  23.458
 452.54  29.985  23.489
 453.04  30.101  23.366
 453.54  29.877  23.427
 454.04  29.985  23.458
 454.54  29.985  23.396
 455.04  29.985  23.427
 455.54  29.985  23.458
 456.04  29.985  23.427
 456.54  30.101  23.458
 457.04  30.101  23.427
 457.54  30.101  23.427
 458.04  29.768  23.427
 458.54  29.985  23.458
 459.04  30.101  23.458
 459.54  29.985  23.458
 460.04  29.985  23.458
 460.54  30.101  23.427
 461.04  30.101  23.427
 461.54  29.985  23.458
 462.04  30.101  23.458
 462.54  30.101  23.458
 463.04  30.217  23.458
 463.54  30.217  23.427
 464.04  30.101  23.427
 464.54  30.217  23.396
 465.04  30.217  23.427
 465.54  30.101  23.427
 466.04  30.101  23.427
 466.54  30.217  23.427
 467.04  30.101  23.427
 467.54  30.101  23.427
 468.04  30.101  23.427
 468.54  30.217  23.427
 469.04  30.217  23.427
 469.54  30.451  23.458
 470.04  30.217  23.489
 470.54  30.217  23.458
 471.04  30.217  23.427
 471.54  30.217  23.427
 472.04  30.217  23.427
 472.54  30.101  23.427
 473.04  30.101  23.458
 473.54  30.217  23.427
 474.04  30.217  23.458
 474.54  30.217  23.427
 475.04  30.217  23.458
 475.54  30.334  23.489
 476.04  30.217  23.396
 476.54  30.334  23.427
 477.04  30.334  23.427
 477.54  30.334  23.458
 478.04  30.217  23.458
 478.54  30.334  23.427
 479.04  30.334  23.458
 479.54  30.217  23.458
 480.04  30.451  23.458
 480.54  30.334  23.489
 481.04  30.334  23.458
 481.54  30.334  23.458
 482.04  30.334  23.427
 482.54  30.334  23.427
 483.04  30.451  23.458
 483.54  30.334  23.458
 484.04  30.451  23.458
 484.54  30.334  23.458
 485.04  30.451  23.427
 485.54  30.451  23.458
 486.04  30.451  23.427
 486.54  30.568  23.458
 487.04  30.451  23.427
 487.54  30.451  23.458
 488.04  30.334  23.458
 488.54  30.217  23.458
 489.04  30.568  23.427
 489.54  30.334  23.458
 490.04  30.451  23.427
 490.54  30.568  23.458
 491.04  30.451  23.489
 491.54  30.451  23.489
 492.04  30.217  23.458
 492.54  30.451  23.427
 493.04  30.451  23.427
 493.54  30.451  23.427
 494.04  30.451  23.458
 494.54  30.568  23.458
 495.04  30.451  23.458
 495.54  30.568  23.458
 496.04  30.568  23.489
 496.54  30.451  23.427
 497.04  30.685  23.458
 497.54  30.568  23.427
 498.04  30.568  23.458
 498.54  30.568  23.458
 499.04  30.568  23.458
 499.54  30.568  23.427
 500.05  30.568  23.458
 500.55  30.685  23.458
 501.05  30.568  23.427
 501.55  30.685  23.489
 502.05  30.568  23.489
 502.55  30.802  23.458
 503.05  30.685  23.427
 503.55  30.802  23.427
 504.05  30.568  23.458
 504.55  30.568  23.489
 505.05  30.568  23.458
 505.55  30.568  23.427
 506.05  30.568  23.427
 506.55  30.685  23.458
 507.05  30.685  23.520
 507.55  30.568  23.427
 508.05  30.685  23.458
 508.55  30.685  23.458
 509.05  30.685  23.489
 509.55  30.685  23.458
 510.05  30.685  23.458
 510.55  30.685  23.427
 511.05  30.568  23.427
 511.55  30.802  23.489
 512.05  30.802  23.458
 512.55  30.802  23.489
 513.05  30.685  23.427
 513.55  30.802  23.427
 514.05  30.802  23.458
 514.55  30.802  23.458
 515.05  30.568  23.458
 515.55  30.802  23.489
 516.05  30.685  23.458
 516.55  30.685  23.427
 517.05  30.802  23.427
 517.55  30.802  23.458
 518.05  30.802  23.427
 518.55  30.802  23.458
 519.05  30.685  23.458
 519.55  30.802  23.458
 520.05  30.802  23.458
 520.55  30.802  23.489
 521.05  30.919  23.427
 521.55  30.802  23.458
 522.05  30.919  23.458
 522.55  30.802  23.458
 523.05  30.919  23.458
 523.55  30.919  23.458
 524.05  30.919  23.489
 524.55  30.919  23.458
 525.05  30.919  23.458
 525.55  30.919  23.520
 526.05  30.919  23.489
 526.55  30.919  23.489
 527.05  30.919  23.458
 527.55  30.802  23.458
 528.05  30.919  23.489
 528.55  31.152  23.458
 529.05  30.919  23.458
 529.55  31.036  23.458
 530.05  30.919  23.427
 530.55  30.919  23.458
 531.05  30.919  23.458
 531.55  30.919  23.458
 532.05  30.919  23.458
 532.55  30.919  23.458
 533.05  30.919  23.458
 533.55  30.919  23.458
 534.05  31.036  23.427
 534.55  30.919  23.458
 535.05  31.036  23.489
 535.55  31.036  23.489
 536.05  31.152  23.427
 536.55  31.036  23.458
 537.05  31.036  23.458
 537.55  31.036  23.489
 538.05  31.036  23.458
 538.55  31.152  23.458
 539.05  31.036  23.489
 539.55  31.036  23.489
 540.05  31.036  23.458
 540.55  31.036  23.458
 541.05  31.152  23.458
 541.55  31.036  23.458
 542.05  31.036  23.489
 542.55  31.036  23.489
 543.05  31.036  23.489
 543.55  31.269  23.489
 544.05  30.919  23.458
 544.55  31.152  23.489
 545.05  31.036  23.427
 545.55  31.152  23.458
 546.05  31.152  23.489
 546.55  31.036  23.489
 547.05  31.152  23.489
 547.55  31.152  23.489
 548.05  31.152  23.520
 548.55  31.036  23.520
 549.05  31.152  23.458
 549.55  31.152  23.427
 550.05  31.269  23.489
 550.55  31.152  23.489
 551.05  31.152  23.458
 551.55  31.152  23.489
 552.05  31.152  23.489
 552.55  31.386  23.489
 553.05  31.152  23.458
 553.55  31.269  23.489
 554.05  31.152  23.458
 554.55  31.269  23.489
 555.05  31.152  23.458
 555.55  31.152  23.489
 556.05  31.152  23.458
 556.55  31.386  23.489
 557.05  31.269  23.458
 557.55  31.269  23.520
 558.05  31.269  23.458
 558.55  31.152  23.489
 559.05  31.269  23.458
 559.55  31.152  23.489
 560.05  31.152  23.458
 560.55  31.386  23.458
 561.05  31.269  23.427
 561.55  31.269  23.458
 562.05  31.152  23.489
 562.55  31.386  23.458
 563.05  31.152  23.458
 563.55  31.269  23.520
 564.05  31.386  23.489
 564.55  31.386  23.458
 565.05  31.386  23.458
 565.55  31.152  23.489
 566.05  31.269  23.458
 566.55  31.386  23.489
 567.05  31.386  23.489
 567.55  31.386  23.520
 568.05  31.269  23.489
 568.55  31.269  23.489
 569.05  31.386  23.427
 569.55  31.386  23.458
 570.05  31.386  23.489
 570.55  31.503  23.489
 571.05  31.386  23.489
 571.55  31.620  23.458
 572.05  31.620  23.458
 572.55  31.386  23.489
 573.05  31.386  23.489
 573.55  31.503  23.458
 574.05  31.620  23.458
 574.55  31.503  23.489
 575.05  31.503  23.427
 575.55  31.386  23.489
 576.05  31.386  23.489
 576.55  31.620  23.458
 577.05  31.386  23.489
 577.55  31.620  23.550
 578.05  31.386  23.458
 578.55  31.386  23.458
 579.05  31.503  23.489
 579.55  31.620  23.458
 580.05  31.503  23.489
 580.55  31.503  23.458
 581.05  31.503  23.489
 581.55  31.503  23.520
 582.05  31.503  23.427
 582.55  31.503  23.458
 583.05  31.737  23.489
 583.55  31.503  23.520
 584.05  31.503  23.489
 584.55  31.620  23.489
 585.05  31.620  23.458
 585.55  31.620  23.458
 586.05  31.620  23.489
 586.55  31.620  23.550
 587.05  31.386  23.520
 587.55  31.620  23.489
 588.05  31.620  23.489
 588.55  31.620  23.489
 589.05  31.620  23.550
 589.55  31.620  23.489
 590.05  31.854  23.489
 590.55  31.620  23.458
 591.05  31.620  23.489
 591.55  31.620  23.489
 592.05  31.737  23.581
 592.55  31.737  23.489
 593.05  31.737  23.520
 593.55  31.737  23.489
 594.05  31.737  23.489
 594.55  31.737  23.458
 595.05  31.854  23.489
 595.55  31.737  23.489
 596.05  31.620  23.489
 596.55  31.737  23.458
 597.05  31.737  23.489
 597.55  31.737  23.489
 598.05  31.737  23.489
 598.55  31.737  23.489
 599.05  31.737  23.458
 599.55  31.737  23.489
 600.05  31.737  23.489
 600.55  31.737  23.489
 601.05  31.620  23.458
 601.55  31.737  23.489
 602.05  31.737  23.458
 602.55  31.854  23.489
 603.05  31.737  23.520
 603.55  31.854  23.489
 604.05  31.620  23.489
 604.55  31.854  23.520
 605.05  31.854  23.489
 605.55  31.854  23.396
 606.05  31.737  23.520
 606.55  31.854  23.489
 607.05  31.971  23.489
 607.55  31.737  23.489
 608.05  31.854  23.520
 608.55  31.620  23.458
 609.05  31.620  23.489
 609.55  31.854  23.489
 610.05  31.854  23.489
 610.55  31.854  23.458
 611.05  31.854  23.489
 611.55  31.854  23.427
 612.05  31.971  23.489
 612.55  31.854  23.458
 613.05  31.971  23.520
 613.55  31.854  23.489
 614.05  31.854  23.489
 614.55  31.854  23.458
 615.05  31.854  23.489
 615.55  31.971  23.489
 616.05  31.854  23.489
 616.55  31.854  23.489
 617.05  31.854  23.581
 617.55  31.854  23.458
 618.05  31.854  23.458
 618.55  31.737  23.489
 619.05  31.971  23.489
 619.55  31.854  23.489
 620.05  31.854  23.458
 620.55  31.971  23.458
 621.05  31.971  23.489
 621.55  31.971  23.489
 622.05  31.971  23.458
 622.55  31.854  23.458
 623.05  31.971  23.489
 623.55  31.971  23.458
 624.05  32.087  23.489
 624.56  31.854  23.489
 625.06  31.854  23.458
 625.56  31.971  23.489
 626.06  31.971  23.458
 626.56  31.971  23.520
 627.06  31.971  23.489
 627.56  31.971  23.396
 628.06  32.087  23.520
 628.56  31.971  23.458
 629.06  32.087  23.520
 629.56  31.971  23.427
 630.06  32.087  23.489
 630.56  31.971  23.520
 631.06  32.087  23.489
 631.56  31.971  23.489
 632.06  31.971  23.458
 632.56  32.087  23.489
 633.06  31.971  23.520
 633.56  31.971  23.458
 634.06  31.971  23.489
 634.56  32.204  23.489
 635.06  31.971  23.489
 635.56  32.087  23.489
 636.06  32.087  23.489
 636.56  32.087  23.489
 637.06  32.204  23.489
 637.56  32.204  23.489
 638.06  32.204  23.489
 638.56  32.087  23.520
 639.06  32.204  23.520
 639.56  32.204  23.489
 640.06  32.087  23.458
 640.56  32.087  23.520
 641.06  32.204  23.489
 641.56  32.204  23.489
 642.06  32.204  23.520
 642.56  32.087  23.520
 643.06  32.087  23.520
 643.56  32.087  23.489
 644.06  32.204  23.489
 644.56  32.087  23.489
 645.06  32.204  23.458
 645.56  32.204  23.489
 646.06  32.087  23.489
 646.56  32.087  23.520
 647.06  32.204  23.489
 647.56  32.204  23.489
 648.06  32.204  23.520
 648.56  32.321  23.489
 649.06  32.204  23.458
 649.56  32.321  23.520
 650.06  32.204  23.489
 650.56  32.204  23.458
 651.06  32.204  23.550
 651.56  32.204  23.489
 652.06  32.204  23.550
 652.56  32.204  23.489
 653.06  32.204  23.520
 653.56  32.321  23.520
 654.06  32.204  23.489
 654.56  32.204  23.489
 655.06  32.204  23.489
 655.56  32.204  23.489
 656.06  32.204  23.489
 656.56  32.321  23.520
 657.06  32.321  23.520
 657.56  32.321  23.489
 658.06  32.438  23.520
 658.56  32.321  23.458
 659.06  32.321  23.489
 659.56  32.438  23.550
 660.06  32.321  23.489
 660.56  32.438  23.489
 661.06  32.204  23.489
 661.56  32.204  23.489
 662.06  32.321  23.489
 662.56  32.321  23.489
 663.06  32.321  23.489
 663.56  31.971  23.458
 664.06  32.321  23.520
 664.56  32.321  23.489
 665.06  32.204  23.489
 665.56  32.321  23.489
 666.06  32.321  23.489
 666.56  32.321  23.489
 667.06  32.204  23.489
 667.56  32.204  23.520
 668.06  32.321  23.489
 668.56  32.438  23.520
 669.06  32.321  23.489
 669.56  32.321  23.520
 670.06  32.438  23.520
 670.56  32.438  23.520
 671.06  32.438  23.489
 671.56  32.555  23.520
 672.06  32.438  23.520
 672.56  32.438  23.520
 673.06  32.438  23.550
 673.56  32.438  23.520
 674.06  32.438  23.489
 674.56  32.555  23.520
 675.06  32.438  23.489
 675.56  32.438  23.550
 676.06  32.555  23.550
 676.56  32.438  23.489
 677.06  32.321  23.520
 677.56  32.438  23.489
 678.06  32.555  23.489
 678.56  32.321  23.520
 679.06  32.321  23.489
 679.56  32.555  23.489
 680.06  32.438  23.489
 680.56  32.438  23.489
 681.06  32.555  23.520
 681.56  32.321  23.489
 682.06  32.438  23.520
 682.56  32.555  23.489
 683.06  32.555  23.520
 683.56  32.438  23.489
 684.06  32.555  23.520
 684.56  32.555  23.520
 685.06  32.438  23.489
 685.56  32.438  23.489
 686.06  32.555  23.612
 686.56  32.555  23.520
 687.06  32.672  23.520
 687.56  32.438  23.520
 688.06  32.555  23.458
 688.56  32.555  23.489
 689.06  32.321  23.520
 689.56  32.555  23.520
 690.06  32.672  23.520
 690.56  32.555  23.489
 691.06  32.555  23.550
 691.56  32.906  23.520
 692.06  32.672  23.520
 692.56  32.672  23.550
 693.06  32.672  23.520
 693.56  32.555  23.489
 694.06  32.789  23.520
 694.56  32.672  23.489
 695.06  32.438  23.520
 695.56  32.438  23.520
 696.06  32.789  23.520
 696.56  32.555  23.489
 697.06  32.672  23.489
 697.56  32.555  23.489
 698.06  32.672  23.489
 698.56  32.555  23.489
 699.06  32.672  23.489
 699.56  32.555  23.489
 700.06  32.555  23.489
 700.56  32.555  23.520
 701.06  32.672  23.489
 701.56  32.555  23.581
 702.06  32.672  23.520
 702.56  32.672  23.550
 703.06  32.672  23.489
 703.56  32.672  23.489
 704.06  32.555  23.489
 704.56  32.672  23.520
 705.06  32.672  23.520
 705.56  33.022  23.489
 706.06  32.672  23.520
 706.56  32.672  23.520
 707.06  32.789  23.520
 707.56  32.789  23.520
 708.06  32.906  23.520
 708.56  32.672  23.520
 709.06  32.789  23.520
 709.56  32.672  23.520
 710.06  32.555  23.520
 710.56  32.672  23.520
 711.06  32.789  23.489
 711.56  32.789  23.520
 712.06  32.789  23.520
 712.56  32.789  23.520
 713.06  32.789  23.520
 713.56  32.789  23.520
 714.06  32.906  23.520
 714.56  32.906  23.520
 715.06  32.906  23.489
 715.56  32.906  23.520
 716.06  32.789  23.520
 716.56  32.906  23.520
 717.06  32.906  23.520
 717.56  32.789  23.489
 718.06  32.906  23.520
 718.56  32.906  23.520
 719.06  32.789  23.520
 719.56  32.906  23.520
 720.06  32.789  23.489
 720.56  32.789  23.520
 721.06  32.906  23.550
 721.56  32.906  23.520
 722.06  32.906  23.520
 722.56  32.906  23.520
 723.06  33.022  23.520
 723.56  33.022  23.520
 724.06  32.906  23.520
 724.56  32.906  23.489
 725.06  32.906  23.520
 725.56  32.789  23.520
 726.06  32.789  23.520
 726.57  33.022  23.550
 727.07  32.789  23.489
 727.57  32.789  23.489
 728.07  32.906  23.489
 728.57  32.906  23.489
 729.07  32.906  23.489
 729.57  32.789  23.520
 730.07  33.139  23.550
 730.57  32.789  23.489
 731.07  32.789  23.520
 731.57  32.906  23.612
 732.07  32.906  23.520
 732.57  33.139  23.550
 733.07  33.022  23.520
 733.57  32.906  23.520
 734.07  32.906  23.520
 734.57  32.906  23.520
 735.07  33.022  23.520
 735.57  32.906  23.520
 736.07  32.906  23.550
 736.57  32.906  23.520
 737.07  33.022  23.550
 737.57  33.022  23.520
 738.07  32.906  23.489
 738.57  32.906  23.550
 739.07  33.022  23.520
 739.57  33.139  23.520
 740.07  32.672  23.520
 740.57  33.022  23.489
 741.07  33.139  23.489
 741.57  32.906  23.520
 742.07  32.906  23.458
 742.57  32.906  23.489
 743.07  33.022  23.520
 743.57  33.022  23.550
 744.07  32.906  23.489
 744.57  32.906  23.520
 745.07  33.022  23.550
 745.57  33.022  23.550
 746.07  33.022  23.520
 746.57  33.022  23.520
 747.07  33.022  23.520
 747.57  32.906  23.520
 748.07  33.022  23.520
 748.57  33.022  23.520
 749.07  33.139  23.520
 749.57  33.139  23.520
 750.07  33.022  23.458
 750.57  33.022  23.520
 751.07  33.139  23.520
 751.57  32.906  23.520
 752.07  33.139  23.520
 752.57  33.022  23.520
 753.07  33.139  23.520
 753.57  33.022  23.520
 754.07  33.139  23.520
 754.57  33.139  23.520
 755.07  33.022  23.520
 755.57  33.022  23.520
 756.07  33.139  23.520
 756.57  33.256  23.520
 757.07  33.139  23.520
 757.57  33.256  23.520
 758.07  33.139  23.520
 758.57  33.139  23.520
 759.07  33.022  23.520
 759.57  33.022  23.520
 760.07  33.022  23.550
 760.57  33.139  23.550
 761.07  33.256  23.550
 761.57  33.256  23.520
 762.07  33.139  23.520
 762.57  33.139  23.520
 763.07  33.139  23.489
 763.57  33.256  23.520
 764.07  33.256  23.520
 764.57  33.139  23.520
 765.07  33.139  23.550
 765.57  33.256  23.520
 766.07  33.139  23.520
 766.57  33.256  23.520
 767.07  33.139  23.550
 767.57  33.256  23.520
 768.07  33.256  23.520
 768.57  33.256  23.550
 769.07  33.139  23.489
 769.57  33.256  23.520
 770.07  33.256  23.520
 770.57  33.256  23.520
 771.07  33.373  23.581
 771.57  33.256  23.520
 772.07  33.256  23.520
 772.57  33.256  23.581
 773.07  33.256  23.520
 773.57  33.256  23.520
 774.07  33.256  23.550
 774.57  33.139  23.520
 775.07  33.256  23.489
 775.57  33.373  23.458
 776.07  33.373  23.550
 776.57  33.256  23.520
 777.07  33.139  23.520
 777.57  33.139  23.520
 778.07  33.373  23.550
 778.57  33.256  23.550
 779.07  33.256  23.520
 779.57  33.256  23.520
 780.07  33.373  23.489
 780.57  33.139  23.520
 781.07  33.256  23.520
 781.57  33.256  23.520
 782.07  33.373  23.550
 782.57  33.256  23.550
 783.07  33.256  23.520
 783.57  33.256  23.520
 784.07  33.373  23.458
 784.57  33.256  23.550
 785.07  33.256  23.520
 785.57  33.022  23.520
 786.07  33.373  23.550
 786.57  33.256  23.520
 787.07  33.373  23.550
 787.57  33.373  23.489
 788.07  33.373  23.520
 788.57  33.139  23.520
 789.07  33.490  23.550
 789.57  33.490  23.550
 790.07  33.256  23.581
 790.57  33.256  23.550
 791.07  33.490  23.458
 791.57  33.373  23.489
 792.07  33.373  23.550
 792.57  33.490  23.520
 793.07  33.373  23.550
 793.57  33.373  23.520
 794.07  33.490  23.550
 794.57  33.490  23.550
 795.07  33.490  23.520
 795.57  33.373  23.520
 796.07  33.373  23.550
 796.57  33.373  23.550
 797.07  33.490  23.550
 797.57  33.373  23.520
 798.07  33.373  23.550
 798.57  33.490  23.550
 799.07  33.607  23.550
 799.57  33.373  23.520
 800.07  33.490  23.550
 800.57  33.490  23.520
 801.07  33.490  23.581
 801.57  33.490  23.520
 802.07  33.490  23.550
 802.57  33.607  23.520
 803.07  33.490  23.520
 803.57  33.490  23.520
 804.07  33.373  23.520
 804.57  33.373  23.550
 805.07  33.490  23.520
 805.57  33.373  23.520
 806.07  33.490  23.520
 806.57  33.373  23.581
 807.07  33.607  23.520
 807.57  33.490  23.520
 808.07  33.490  23.520
 808.57  33.607  23.550
 809.07  33.607  23.550
 809.57  33.373  23.550
 810.07  33.490  23.550
 810.57  33.490  23.520
 811.07  33.373  23.550
 811.57  33.607  23.520
 812.07  33.490  23.520
 812.57  33.607  23.520
 813.07  33.607  23.520
 813.57  33.607  23.520
 814.07  33.490  23.550
 814.57  33.373  23.520
 815.07  33.607  23.489
 815.57  33.490  23.520
 816.07  33.607  23.550
 816.57  33.490  23.520
 817.07  33.607  23.550
 817.57  33.607  23.550
 818.07  33.607  23.489
 818.57  33.490  23.550
 819.07  33.724  23.550
 819.57  33.724  23.550
 820.07  33.490  23.550
 820.57  33.724  23.520
 821.07  33.490  23.520
 821.57  33.490  23.520
 822.07  33.607  23.489
 822.57  33.724  23.520
 823.07  33.607  23.550
 823.57  33.607  23.520
 824.07  33.490  23.550
 824.57  33.607  23.550
 825.07  33.607  23.550
 825.57  33.607  23.550
 826.07  33.373  23.520
 826.57  33.607  23.550
 827.07  33.607  23.581
 827.57  33.957  23.520
 828.07  33.607  23.520
 828.57  33.490  23.581
 829.07  33.724  23.550
 829.57  33.490  23.550
 830.07  33.607  23.550
 830.57  33.607  23.520
 831.07  33.724  23.550
 831.57  33.607  23.550
 832.07  33.607  23.520
 832.57  33.724  23.489
 833.07  33.607  23.550
 833.57  33.607  23.520
 834.07  33.490  23.550
 834.57  33.724  23.550
 835.07  33.841  23.520
 835.57  33.724  23.550
 836.07  33.724  23.520
 836.57  33.724  23.550
 837.07  33.724  23.550
 837.57  33.957  23.550
 838.07  33.724  23.550
 838.57  33.957  23.550
 839.07  33.841  23.550
 839.58  33.607  23.520
 840.08  33.841  23.581
 840.58  33.607  23.581
 841.08  33.841  23.550
 841.58  34.074  23.520
 842.08  33.841  23.520
 842.58  33.724  23.550
 843.08  33.841  23.581
 843.58  33.841  23.550
 844.08  33.841  23.581
 844.58  33.724  23.550
 845.08  33.957  23.550
 845.58  33.724  23.520
 846.08  33.841  23.550
 846.58  33.724  23.550
 847.08  33.724  23.581
 847.58  33.724  23.550
 848.08  33.841  23.550
 848.58  33.841  23.550
 849.08  33.841  23.550
 849.58  33.724  23.550
 850.08  33.841  23.520
 850.58  33.607  23.520
 851.08  33.724  23.520
 851.58  33.841  23.550
 852.08  33.841  23.520
 852.58  33.841  23.550
 853.08  33.724  23.550
 853.58  33.841  23.581
 854.08  33.841  23.550
 854.58  33.841  23.550
 855.08  33.957  23.550
 855.58  33.841  23.581
 856.08  33.841  23.520
 856.58  33.957  23.550
 857.08  33.841  23.520
 857.58  33.841  23.520
 858.08  33.957  23.458
 858.58  33.724  23.520
 859.08  33.841  23.550
 859.58  33.841  23.550
 860.08  33.841  23.581
 860.58  33.841  23.550
 861.08  33.841  23.550
 861.58  33.841  23.550
 862.08  33.841  23.550
 862.58  33.841  23.550
 863.08  33.841  23.520
 863.58  33.841  23.550
 864.08  33.957  23.550
 864.58  33.841  23.550
 865.08  33.957  23.581
 865.58  34.074  23.520
 866.08  33.841  23.520
 866.58  33.841  23.581
 867.08  33.957  23.612
 867.58  33.957  23.550
 868.08  33.957  23.550
 868.58  33.957  23.550
 869.08  33.957  23.550
 869.58  33.724  23.550
 870.08  33.841  23.550
 870.58  33.957  23.581
 871.08  33.957  23.520
 871.58  33.957  23.581
 872.08  33.957  23.550
 872.58  33.957  23.550
 873.08  33.957  23.520
 873.58  33.957  23.550
 874.08  33.957  23.581
 874.58  33.957  23.550
 875.08  33.957  23.550
 875.58  33.841  23.550
 876.08  33.957  23.550
 876.58  33.957  23.550
 877.08  33.841  23.550
 877.58  33.841  23.550
 878.08  34.074  23.550
 878.58  33.957  23.581
 879.08  33.957  23.520
 879.58  34.308  23.550
 880.08  33.957  23.550
 880.58  33.957  23.550
 881.08  34.074  23.520
 881.58  34.074  23.550
 882.08  34.074  23.550
 882.58  33.957  23.520
 883.08  33.957  23.612
 883.58  33.957  23.520
 884.08  33.957  23.612
 884.58  33.957  23.550
 885.08  33.957  23.550
 885.58  33.957  23.581
 886.08  34.074  23.550
 886.58  34.074  23.550
 887.08  34.074  23.581
 887.58  34.191  23.581
 888.08  33.957  23.520
 888.58  34.074  23.581
 889.08  34.074  23.550
 889.58  34.074  23.550
 890.08  34.074  23.550
 890.58  34.074  23.550
 891.08  34.074  23.581
 891.58  34.074  23.550
 892.08  33.957  23.581
 892.58  34.308  23.550
 893.08  34.074  23.581
 893.58  34.074  23.550
 894.08  34.191  23.520
 894.58  34.074  23.550
 895.08  34.074  23.581
 895.58  33.957  23.550
 896.08  34.074  23.550
 896.58  34.074  23.550
 897.08  34.074  23.550
 897.58  34.074  23.550
 898.08  34.074  23.550
 898.58  34.074  23.581
 899.08  34.191  23.520
 899.58  34.074  23.612
 900.08  34.074  23.550
 900.58  34.074  23.581
 901.08  34.191  23.550
 901.58  34.191  23.550
 902.08  33.957  23.581
 902.58  34.191  23.581
 903.08  34.308  23.550
 903.58  34.191  23.550
 904.08  34.191  23.612
 904.58  34.191  23.581
 905.08  34.074  23.581
 905.58  34.191  23.581
 906.08  34.074  23.550
 906.58  34.074  23.550
 907.08  34.074  23.550
 907.58  34.074  23.550
 908.08  34.191  23.550
 908.58  34.191  23.550
 909.08  34.191  23.581
 909.58  34.191  23.550
 910.08  34.191  23.581
 910.58  34.191  23.550
 911.08  34.191  23.550
 911.58  34.191  23.550
 912.08  34.308  23.550
 912.58  34.308  23.550
 913.08  34.308  23.612
 913.58  34.191  23.581
 914.08  34.191  23.550
 914.58  34.074  23.550
 915.08  34.191  23.581
 915.58  34.191  23.581
 916.08  34.191  23.550
 916.58  34.074  23.581
 917.08  34.191  23.581
 917.58  34.191  23.612
 918.08  34.191  23.550
 918.58  34.191  23.581
 919.08  34.308  23.581
 919.58  34.191  23.550
 920.08  34.308  23.550
 920.58  34.074  23.550
 921.08  34.191  23.550
 921.58  34.191  23.581
 922.08  34.308  23.550
 922.58  34.074  23.550
 923.08  34.308  23.581
 923.58  34.191  23.550
 924.08  34.191  23.550
 924.58  34.191  23.550
 925.08  34.308  23.581
 925.58  34.191  23.581
 926.08  34.308  23.581
 926.58  34.308  23.550
 927.08  34.308  23.581
 927.58  34.074  23.581
 928.08  34.308  23.581
 928.58  34.308  23.550
 929.08  34.308  23.550
 929.58  34.308  23.550
 930.08  34.425  23.581
 930.58  34.308  23.581
 931.08  34.308  23.581
 931.58  34.191  23.581
 932.08  34.308  23.550
 932.58  34.308  23.612
 933.08  34.308  23.581
 933.58  34.425  23.550
 934.08  34.425  23.581
 934.58  34.308  23.550
 935.08  34.425  23.550
 935.58  34.308  23.550
 936.08  34.308  23.581
 936.58  34.308  23.550
 937.08  34.425  23.581
 937.58  34.308  23.612
 938.08  34.308  23.581
 938.58  34.308  23.581
 939.08  34.425  23.581
 939.58  34.191  23.581
 940.08  34.425  23.550
 940.58  34.308  23.550
 941.08  34.308  23.550
 941.58  34.425  23.550
 942.08  34.425  23.581
 942.58  34.542  23.581
 943.08  34.425  23.581
 943.58  34.542  23.550
 944.08  34.425  23.550
 944.58  34.425  23.550
 945.08  34.425  23.550
 945.58  34.425  23.550
 946.08  34.425  23.581
 946.58  34.425  23.550
 947.08  34.425  23.550
 947.58  34.425  23.581
 948.08  34.308  23.581
 948.58  34.425  23.550
 949.08  34.425  23.581
 949.58  34.425  23.581
 950.08  34.425  23.581
 950.58  34.425  23.550
 951.08  34.776  23.581
 951.58  34.425  23.581
 952.08  34.425  23.581
 952.58  34.425  23.550
 953.09  34.308  23.581
 953.59  34.425  23.550
 954.09  34.425  23.550
 954.59  34.425  23.581
 955.09  34.425  23.550
 955.59  34.308  23.612
 956.09  34.425  23.550
 956.59  34.542  23.581
 957.09  34.425  23.550
 957.59  34.308  23.550
 958.09  34.542  23.550
 958.59  34.425  23.581
 959.09  34.425  23.581
 959.59  34.542  23.550
 960.09  34.425  23.581
 960.59  34.542  23.581
 961.09  34.542  23.550
 961.59  34.542  23.581
 962.09  34.425  23.581
 962.59  34.425  23.581
 963.09  34.542  23.581
 963.59  34.659  23.643
 964.09  34.542  23.550
 964.59  34.425  23.550
 965.09  34.542  23.581
 965.59  34.542  23.643
 966.09  34.425  23.581
 966.59  34.425  23.581
 967.09  34.542  23.581
 967.59  34.542  23.581
 968.09  34.542  23.550
 968.59  34.542  23.581
 969.09  34.542  23.581
 969.59  34.542  23.581
 970.09  34.659  23.581
 970.59  34.542  23.550
 971.09  34.542  23.550
 971.59  34.542  23.550
 972.09  34.425  23.581
 972.59  34.542  23.550
 973.09  34.659  23.550
 973.59  34.308  23.581
 974.09  34.425  23.581
 974.59  34.542  23.581
 975.09  34.542  23.581
 975.59  34.776  23.581
 976.09  34.542  23.581
 976.59  34.542  23.581
 977.09  34.542  23.550
 977.59  34.542  23.550
 978.09  34.425  23.581
 978.59  34.542  23.581
 979.09  34.542  23.550
 979.59  34.542  23.612
 980.09  34.542  23.550
 980.59  34.659  23.550
 981.09  34.659  23.581
 981.59  34.542  23.550
 982.09  34.542  23.550
 982.59  34.659  23.581
 983.09  34.659  23.581
 983.59  34.776  23.550
 984.09  34.542  23.612
 984.59  34.892  23.581
 985.09  34.425  23.581
 985.59  34.542  23.581
 986.09  34.542  23.581
 986.59  34.659  23.581
 987.09  34.659  23.581
 987.59  34.659  23.612
 988.09  34.776  23.581
 988.59  34.659  23.550
 989.09  34.542  23.581
 989.59  34.425  23.550
 990.09  34.659  23.643
 990.59  34.542  23.550
 991.09  34.425  23.581
 991.59  34.542  23.581
 992.09  34.542  23.612
 992.59  34.659  23.581
 993.09  34.542  23.581
 993.59  34.659  23.550
 994.09  34.776  23.581
 994.59  34.659  23.581
 995.09  34.659  23.550
 995.59  34.776  23.581
 996.09  34.776  23.581
 996.59  34.776  23.581
 997.09  34.776  23.520
 997.59  34.659  23.581
 998.09  34.776  23.550
 998.59  34.776  23.612
 999.09  34.659  23.581
 999.59  34.776  23.612
1000.09  34.659  23.612
1000.59  34.659  23.612
1001.09  34.542  23.550
1001.59  34.776  23.550
1002.09  34.659  23.581
1002.59  34.776  23.550
1003.09  34.659  23.581
1003.59  34.659  23.581
1004.09  34.425  23.581
1004.59  34.776  23.612
1005.09  34.776  23.581
1005.59  34.776  23.581
1006.09  34.659  23.550
1006.59  34.542  23.581
1007.09  34.659  23.581
1007.59  34.776  23.581
1008.09  34.659  23.612
1008.59  34.776  23.581
1009.09  34.425  23.581
1009.59  34.776  23.550
1010.09  34.776  23.581
1010.59  34.659  23.581
1011.09  34.892  23.581
1011.59  34.776  23.550
1012.09  34.776  23.550
1012.59  34.776  23.612
1013.09  34.892  23.581
1013.59  34.776  23.581
1014.09  34.776  23.581
1014.59  34.892  23.581
1015.09  34.776  23.550
1015.59  34.776  23.612
1016.09  34.892  23.581
1016.59  34.776  23.581
1017.09  34.659  23.581
1017.59  34.892  23.612
1018.09  34.776  23.612
1018.59  34.892  23.612
1019.09  34.776  23.581
1019.59  34.892  23.581
1020.09  34.892  23.612
1020.59  34.776  23.643
1021.09  34.776  23.612
1021.59  34.892  23.581
1022.09  34.776  23.581
1022.59  34.892  23.612
1023.09  34.776  23.581
1023.59  34.892  23.581
1024.09  34.776  23.581
1024.59  34.892  23.581
1025.09  35.005  23.581
1025.59  34.776  23.550
1026.09  34.892  23.581
1026.59  34.776  23.581
1027.09  34.892  23.612
1027.59  34.776  23.550
1028.09  34.776  23.612
1028.59  34.892  23.550
1029.09  34.892  23.581
1029.59  35.005  23.581
1030.09  34.776  23.612
1030.59  34.892  23.643
1031.09  34.892  23.612
1031.59  34.892  23.581
1032.09  34.892  23.612
1032.59  34.776  23.612
1033.09  34.776  23.581
1033.59  34.776  23.581
1034.09  34.892  23.581
1034.59  35.005  23.581
1035.09  34.892  23.581
1035.59  34.776  23.612
1036.09  34.892  23.581
1036.59  35.005  23.520
1037.09  34.892  23.581
1037.59  34.892  23.612
1038.09  34.892  23.581
1038.59  34.892  23.581
1039.09  35.005  23.581
1039.59  34.892  23.581
1040.09  34.892  23.581
1040.59  35.005  23.581
1041.09  34.892  23.581
1041.59  34.892  23.581
1042.09  34.892  23.581
1042.59  34.892  23.612
1043.09  34.892  23.581
1043.59  34.892  23.612
1044.09  34.892  23.581
1044.59  34.892  23.581
1045.09  34.776  23.581
1045.59  34.892  23.612
1046.09  34.892  23.612
1046.59  34.892  23.581
1047.09  34.892  23.612
1047.59  35.069  23.612
1048.09  35.005  23.612
1048.59  35.069  23.612
1049.09  34.892  23.612
1049.59  34.892  23.581
1050.09  35.005  23.550
1050.59  34.892  23.581
1051.09  34.892  23.581
1051.59  35.005  23.612
1052.09  35.005  23.612
1052.59  34.776  23.581
1053.09  34.892  23.612
1053.59  35.005  23.643
1054.09  34.892  23.612
1054.59  34.776  23.612
1055.09  34.892  23.581
1055.59  34.892  23.550
1056.09  34.892  23.612
1056.59  35.069  23.612
1057.09  34.892  23.581
1057.59  35.005  23.612
1058.09  35.005  23.612
1058.59  34.892  23.581
1059.09  35.005  23.643
1059.59  35.005  23.612
1060.09  34.892  23.581
1060.59  35.005  23.581
1061.09  35.005  23.612
1061.59  35.069  23.581
1062.09  35.005  23.550
1062.59  35.005  23.643
1063.09  35.069  23.612
1063.59  35.069  23.612
1064.09  35.005  23.612
1064.59  35.005  23.612
1065.09  35.069  23.612
1065.59  35.069  23.581
1066.10  35.133  23.550
1066.60  35.133  23.581
1067.10  35.069  23.612
1067.60  35.133  23.643
1068.10  35.069  23.643
1068.60  35.069  23.612
1069.10  35.069  23.550
1069.60  35.005  23.612
1070.10  35.005  23.643
1070.60  34.892  23.612
1071.10  35.069  23.612
1071.60  35.069  23.612
1072.10  35.069  23.581
1072.60  35.069  23.581
1073.10  35.005  23.612
1073.60  35.133  23.612
1074.10  35.005  23.643
1074.60  35.069  23.581
1075.10  35.005  23.612
1075.60  35.005  23.612
1076.10  35.005  23.581
1076.60  35.069  23.612
1077.10  35.069  23.612
1077.60  35.069  23.581
1078.10  35.069  23.612
1078.60  35.133  23.581
1079.10  35.069  23.612
1079.60  35.069  23.674
1080.10  35.069  23.581
1080.60  35.069  23.550
1081.10  35.069  23.581
1081.60  35.069  23.581
1082.10  35.133  23.612
1082.60  35.069  23.581
1083.10  35.069  23.550
1083.60  35.069  23.612
1084.10  35.069  23.612
1084.60  35.005  23.581
1085.10  35.069  23.612
1085.60  35.069  23.581
1086.10  35.069  23.581
1086.60  35.069  23.612
1087.10  35.069  23.581
1087.60  35.005  23.612
1088.10  35.133  23.612
1088.60  35.005  23.612
1089.10  35.069  23.612
1089.60  35.069  23.612
1090.10  35.069  23.612
1090.60  35.133  23.581
1091.10  35.069  23.643
1091.60  35.069  23.674
1092.10  35.133  23.581
1092.60  35.069  23.612
1093.10  35.133  23.612
1093.60  35.133  23.612
1094.10  35.133  23.612
1094.60  35.133  23.612
1095.10  35.069  23.612
1095.60  35.069  23.612
1096.10  35.133  23.612
1096.60  35.133  23.612
1097.10  35.069  23.612
1097.60  35.069  23.612
1098.10  35.069  23.581
1098.60  35.069  23.612
1099.10  35.133  23.612
1099.60  35.069  23.612
1100.10  35.133  23.581
1100.60  35.133  23.612
1101.10  35.133  23.612
1101.60  35.197  23.612
1102.10  35.005  23.612
1102.60  35.069  23.612
1103.10  35.133  23.612
1103.60  35.261  23.612
1104.10  35.197  23.643
1104.60  35.069  23.612
1105.10  35.197  23.581
1105.60  35.197  23.643
1106.10  35.069  23.643
1106.60  35.133  23.643
1107.10  35.133  23.612
1107.60  35.133  23.612
1108.10  35.133  23.612
1108.60  35.133  23.612
1109.10  35.133  23.643
1109.60  35.133  23.643
1110.10  35.133  23.643
1110.60  35.133  23.581
1111.10  35.197  23.612
1111.60  35.133  23.612
1112.10  35.133  23.612
1112.60  35.133  23.612
1113.10  35.197  23.612
1113.60  35.133  23.612
1114.10  35.197  23.612
1114.60  35.133  23.581
1115.10  35.197  23.612
1115.60  35.197  23.612
1116.10  35.197  23.674
1116.60  35.133  23.612
1117.10  35.133  23.581
1117.60  35.133  23.612
1118.10  35.069  23.612
1118.60  35.133  23.612
1119.10  35.261  23.581
1119.60  35.197  23.581
1120.10  35.133  23.612
1120.60  35.133  23.550
1121.10  35.325  23.643
1121.60  35.261  23.612
1122.10  35.197  23.612
1122.60  35.133  23.612
1123.10  35.197  23.643
1123.60  35.133  23.643
1124.10  35.261  23.612
1124.60  35.197  23.612
1125.10  35.197  23.612
1125.60  35.197  23.612
1126.10  35.197  23.612
1126.60  35.197  23.612
1127.10  35.197  23.612
1127.60  35.197  23.612
1128.10  35.261  23.612
1128.60  35.133  23.612
1129.10  35.133  23.643
1129.60  35.197  23.612
1130.10  35.261  23.643
1130.60  35.197  23.612
1131.10  35.133  23.612
1131.60  35.197  23.612
1132.10  35.261  23.581
1132.60  35.133  23.643
1133.10  35.197  23.581
1133.60  35.197  23.643
1134.10  35.261  23.643
1134.60  35.197  23.612
1135.10  35.389  23.612
1135.60  35.261  23.643
1136.10  35.197  23.643
1136.60  35.261  23.643
1137.10  35.197  23.581
1137.60  35.197  23.643
1138.10  35.261  23.612
1138.60  35.197  23.643
1139.10  35.261  23.643
1139.60  35.261  23.581
1140.10  35.261  23.643
1140.60  35.261  23.643
1141.10  35.261  23.643
1141.60  35.133  23.612
1142.10  35.325  23.581
1142.60  35.197  23.612
1143.10  35.197  23.581
1143.60  35.261  23.612
1144.10  35.197  23.643
1144.60  35.197  23.643
1145.10  35.197  23.643
1145.60  35.197  23.612
1146.10  35.197  23.643
1146.60  35.261  23.612
1147.10  35.197  23.643
1147.60  35.197  23.612
1148.10  35.197  23.612
1148.60  35.261  23.643
1149.10  35.197  23.612
1149.60  35.325  23.612
1150.10  35.261  23.674
1150.60  35.325  23.643
1151.10  35.261  23.612
1151.60  35.133  23.643
1152.10  35.325  23.643
1152.60  35.325  23.674
1153.10  35.261  23.612
1153.60  35.197  23.674
1154.10  35.261  23.612
1154.60  35.261  23.612
1155.10  35.261  23.612
1155.60  35.197  23.612
1156.10  35.197  23.612
1156.60  35.325  23.612
1157.10  35.261  23.612
1157.60  35.325  23.612
1158.10  35.325  23.612
1158.60  35.261  23.643
1159.10  35.261  23.643
1159.60  35.261  23.643
1160.10  35.261  23.643
1160.60  35.261  23.612
1161.10  35.261  23.612
1161.60  35.261  23.612
1162.10  35.261  23.643
1162.60  35.261  23.643
1163.10  35.261  23.643
1163.60  35.325  23.643
1164.10  35.325  23.674
1164.60  35.261  23.612
1165.10  35.261  23.643
1165.60  35.261  23.612
1166.10  35.261  23.643
1166.60  35.197  23.643
1167.10  35.325  23.612
1167.60  35.325  23.674
1168.10  35.261  23.581
1168.60  35.261  23.612
1169.10  35.261  23.643
1169.60  35.325  23.674
1170.10  35.389  23.674
1170.60  35.197  23.612
1171.10  35.325  23.643
1171.60  35.261  23.643
1172.10  35.261  23.643
1172.60  35.389  23.643
1173.10  35.325  23.643
1173.60  35.261  23.643
1174.10  35.325  23.612
1174.60  35.325  23.612
1175.10  35.325  23.643
1175.60  35.261  23.643
1176.10  35.325  23.643
1176.60  35.325  23.643
1177.10  35.325  23.612
1177.60  35.325  23.643
1178.10  35.389  23.643
1178.60  35.261  23.643
1179.11  35.325  23.643
1179.61  35.325  23.612
1180.11  35.261  23.612
1180.61  35.325  23.581
1181.11  35.325  23.643
1181.61  35.261  23.612
1182.11  35.325  23.643
1182.61  35.325  23.612
1183.11  35.325  23.612
1183.61  35.261  23.643
1184.11  35.325  23.612
1184.61  35.325  23.612
1185.11  35.325  23.643
1185.61  35.325  23.674
1186.11  35.325  23.612
1186.61  35.389  23.643
1187.11  35.325  23.643
1187.61  35.325  23.643
1188.11  35.325  23.643
1188.61  35.325  23.643
1189.11  35.325  23.643
1189.61  35.325  23.612
1190.11  35.325  23.643
1190.61  35.325  23.643
1191.11  35.325  23.643
1191.61  35.325  23.643
1192.11  35.325  23.612
1192.61  35.325  23.643
1193.11  35.325  23.643
1193.61  35.325  23.612
1194.11  35.325  23.643
1194.61  35.325  23.643
1195.11  35.325  23.643
1195.61  35.325  23.643
1196.11  35.389  23.643
1196.61  35.325  23.643
1197.11  35.517  23.643
1197.61  35.325  23.612
1198.11  35.389  23.643
1198.61  35.325  23.643
1199.11  35.389  23.612
1199.61  35.389  23.643
1200.11  35.453  23.643
1200.61  35.389  23.674
1201.11  35.389  23.643
1201.61  35.389  23.643
1202.11  35.325  23.612
1202.61  35.389  23.643
1203.11  35.517  23.643
1203.61  35.389  23.643
1204.11  35.389  23.643
1204.61  35.389  23.643
1205.11  35.389  23.581
1205.61  35.261  23.643
1206.11  35.389  23.643
1206.61  35.325  23.643
1207.11  35.325  23.643
1207.61  35.389  23.674
1208.11  35.325  23.674
1208.61  35.389  23.581
1209.11  35.389  23.581
1209.61  35.389  23.674
1210.11  35.325  23.674
1210.61  35.389  23.643
1211.11  35.453  23.612
1211.61  35.389  23.643
1212.11  35.453  23.643
1212.61  35.389  23.643
1213.11  35.389  23.643
1213.61  35.325  23.643
1214.11  35.389  23.581
1214.61  35.389  23.612
1215.11  35.389  23.643
1215.61  35.453  23.674
1216.11  35.389  23.612
1216.61  35.453  23.581
1217.11  35.261  23.643
1217.61  35.325  23.643
1218.11  35.453  23.643
1218.61  35.389  23.643
1219.11  35.389  23.643
1219.61  35.389  23.643
1220.11  35.325  23.643
1220.61  35.389  23.643
1221.11  35.389  23.643
1221.61  35.389  23.643
1222.11  35.453  23.643
1222.61  35.389  23.674
1223.11  35.453  23.674
1223.61  35.389  23.581
1224.11  35.389  23.674
1224.61  35.325  23.674
1225.11  35.453  23.612
1225.61  35.517  23.643
1226.11  35.389  23.643
1226.61  35.453  23.643
1227.11  35.453  23.643
1227.61  35.453  23.612
1228.11  35.453  23.612
1228.61  35.453  23.643
1229.11  35.453  23.643
1229.61  35.389  23.612
1230.11  35.453  23.643
1230.61  35.453  23.643
1231.11  35.453  23.643
1231.61  35.453  23.643
1232.11  35.389  23.643
1232.61  35.517  23.643
1233.11  35.453  23.643
1233.61  35.389  23.674
1234.11  35.453  23.674
1234.61  35.389  23.643
1235.11  35.389  23.643
1235.61  35.453  23.674
1236.11  35.517  23.674
1236.61  35.453  23.643
1237.11  35.389  23.643
1237.61  35.389  23.643
1238.11  35.453  23.643
1238.61  35.389  23.612
1239.11  35.389  23.643
1239.61  35.517  23.643
1240.11  35.389  23.643
1240.61  35.453  23.674
1241.11  35.389  23.643
1241.61  35.389  23.643
1242.11  35.453  23.643
1242.61  35.453  23.643
1243.11  35.389  23.612
1243.61  35.453  23.643
1244.11  35.389  23.643
1244.61  35.453  23.612
1245.11  35.453  23.612
1245.61  35.453  23.674
1246.11  35.389  23.612
1246.61  35.581  23.674
1247.11  35.453  23.643
1247.61  35.453  23.674
1248.11  35.517  23.643
1248.61  35.453  23.643
1249.11  35.453  23.643
1249.61  35.453  23.612
1250.11  35.453  23.674
1250.61  35.517  23.643
1251.11  35.453  23.674
1251.61  35.453  23.674
1252.11  35.517  23.674
1252.61  35.453  23.643
1253.11  35.517  23.643
1253.61  35.517  23.674
1254.11  35.517  23.643
1254.61  35.453  23.643
1255.11  35.517  23.643
1255.61  35.453  23.643
1256.11  35.453  23.612
1256.61  35.517  23.612
1257.11  35.453  23.643
1257.61  35.453  23.643
1258.11  35.453  23.612
1258.61  35.453  23.643
1259.11  35.517  23.643
1259.61  35.517  23.643
1260.11  35.453  23.612
1260.61  35.517  23.674
1261.11  35.517  23.643
1261.61  35.517  23.674
1262.11  35.517  23.643
1262.61  35.517  23.643
1263.11  35.453  23.674
1263.61  35.453  23.643
1264.11  35.581  23.643
1264.61  35.517  23.674
1265.11  35.517  23.674
1265.61  35.453  23.705
1266.11  35.517  23.674
1266.61  35.517  23.674
1267.11  35.517  23.612
1267.61  35.517  23.643
1268.11  35.517  23.674
1268.61  35.517  23.612
1269.11  35.581  23.643
1269.61  35.517  23.643
1270.11  35.517  23.643
1270.61  35.453  23.643
1271.11  35.709  23.643
1271.61  35.517  23.674
1272.11  35.517  23.705
1272.61  35.581  23.643
1273.11  35.517  23.643
1273.61  35.453  23.705
1274.11  35.453  23.643
1274.61  35.517  23.674
1275.11  35.517  23.643
1275.61  35.517  23.643
1276.11  35.581  23.643
1276.61  35.453  23.674
1277.11  35.517  23.674
1277.61  35.645  23.612
1278.11  35.581  23.674
1278.61  35.517  23.643
1279.11  35.517  23.674
1279.61  35.517  23.612
1280.11  35.517  23.674
1280.61  35.581  23.674
1281.11  35.517  23.674
1281.61  35.581  23.643
1282.11  35.517  23.674
1282.61  35.581  23.643
1283.11  35.581  23.612
1283.61  35.581  23.674
1284.11  35.517  23.643
1284.61  35.517  23.674
1285.11  35.581  23.674
1285.61  35.645  23.643
1286.11  35.581  23.643
1286.61  35.581  23.643
1287.11  35.645  23.674
1287.61  35.453  23.674
1288.11  35.581  23.643
1288.61  35.517  23.674
1289.11  35.645  23.643
1289.61  35.645  23.705
1290.11  35.581  23.643
1290.61  35.517  23.705
1291.11  35.581  23.735
1291.61  35.645  23.674
1292.12  35.581  23.674
1292.62  35.645  23.674
1293.12  35.581  23.643
1293.62  35.581  23.674
1294.12  35.581  23.643
1294.62  35.517  23.643
1295.12  35.581  23.612
1295.62  35.645  23.674
1296.12  35.581  23.674
1296.62  35.645  23.643
1297.12  35.645  23.674
1297.62  35.581  23.674
1298.12  35.581  23.612
1298.62  35.581  23.643
1299.12  35.517  23.674
1299.62  35.581  23.674
1300.12  35.517  23.674
1300.62  35.453  23.674
1301.12  35.517  23.643
1301.62  35.581  23.674
1302.12  35.581  23.643
1302.62  35.517  23.674
1303.12  35.581  23.674
1303.62  35.581  23.643
1304.12  35.645  23.674
1304.62  35.581  23.674
1305.12  35.645  23.674
1305.62  35.581  23.705
1306.12  35.645  23.674
1306.62  35.645  23.674
1307.12  35.645  23.674
1307.62  35.581  23.643
1308.12  35.581  23.705
1308.62  35.517  23.674
1309.12  35.581  23.612
1309.62  35.581  23.735
1310.12  35.645  23.674
1310.62  35.645  23.643
1311.12  35.645  23.643
1311.62  35.581  23.674
1312.12  35.581  23.674
1312.62  35.645  23.643
1313.12  35.581  23.674
1313.62  35.645  23.643
1314.12  35.645  23.674
1314.62  35.645  23.643
1315.12  35.645  23.674
1315.62  35.645  23.705
1316.12  35.645  23.674
1316.62  35.581  23.643
1317.12  35.581  23.674
1317.62  35.709  23.643
1318.12  35.645  23.674
1318.62  35.645  23.674
1319.12  35.581  23.674
1319.62  35.517  23.705
1320.12  35.645  23.643
1320.62  35.645  23.643
1321.12  35.645  23.674
1321.62  35.645  23.643
1322.12  35.645  23.705
1322.62  35.581  23.643
1323.12  35.581  23.674
1323.62  35.581  23.674
1324.12  35.645  23.705
1324.62  35.645  23.674
1325.12  35.645  23.674
1325.62  35.709  23.674
1326.12  35.709  23.705
1326.62  35.709  23.674
1327.12  35.645  23.674
1327.62  35.581  23.674
1328.12  35.709  23.674
1328.62  35.709  23.674
1329.12  35.645  23.674
1329.62  35.645  23.674
1330.12  35.645  23.735
1330.62  35.645  23.674
1331.12  35.709  23.674
1331.62  35.645  23.674
1332.12  35.709  23.674
1332.62  35.709  23.674
1333.12  35.709  23.674
1333.62  35.709  23.674
1334.12  35.645  23.705
1334.62  35.645  23.643
1335.12  35.709  23.674
1335.62  35.645  23.674
1336.12  35.709  23.674
1336.62  35.773  23.674
1337.12  35.709  23.674
1337.62  35.709  23.674
1338.12  35.645  23.674
1338.62  35.645  23.705
1339.12  35.773  23.705
1339.62  35.709  23.643
1340.12  35.709  23.643
1340.62  35.645  23.674
1341.12  35.709  23.674
1341.62  35.773  23.643
1342.12  35.645  23.705
1342.62  35.709  23.674
1343.12  35.709  23.674
1343.62  35.773  23.674
1344.12  35.645  23.674
1344.62  35.709  23.705
1345.12  35.773  23.705
1345.62  35.709  23.674
1346.12  35.773  23.674
1346.62  35.645  23.674
1347.12  35.709  23.674
1347.62  35.709  23.705
1348.12  35.709  23.674
1348.62  35.709  23.674
1349.12  35.645  23.674
1349.62  35.709  23.705
1350.12  35.709  23.674
1350.62  35.773  23.674
1351.12  35.645  23.674
1351.62  35.709  23.735
1352.12  35.709  23.705
1352.62  35.709  23.674
1353.12  35.773  23.674
1353.62  35.773  23.674
1354.12  35.773  23.705
1354.62  35.709  23.705
1355.12  35.709  23.705
1355.62  35.709  23.674
1356.12  35.709  23.705
1356.62  35.709  23.674
1357.12  35.645  23.705
1357.62  35.773  23.674
1358.12  35.709  23.674
1358.62  35.773  23.674
1359.12  35.709  23.674
1359.62  35.773  23.674
1360.12  35.773  23.674
1360.62  35.709  23.643
1361.12  35.709  23.705
1361.62  35.709  23.674
1362.12  35.709  23.705
1362.62  35.709  23.735
1363.12  35.709  23.674
1363.62  35.645  23.674
1364.12  35.709  23.674
1364.62  35.709  23.674
1365.12  35.709  23.674
1365.62  35.709  23.674
1366.12  35.709  23.705
1366.62  35.773  23.674
1367.12  35.773  23.705
1367.62  35.773  23.705
1368.12  35.773  23.643
1368.62  35.709  23.674
1369.12  35.773  23.674
1369.62  35.773  23.674
1370.12  35.709  23.674
1370.62  35.773  23.705
1371.12  35.709  23.705
1371.62  35.645  23.643
1372.12  35.773  23.643
1372.62  35.773  23.674
1373.12  35.773  23.643
1373.62  35.709  23.674
1374.12  35.773  23.705
1374.62  35.709  23.674
1375.12  35.773  23.674
1375.62  35.773  23.674
1376.12  35.773  23.705
1376.62  35.709  23.674
1377.12  35.837  23.674
1377.62  35.773  23.705
1378.12  35.773  23.643
1378.62  35.837  23.705
1379.12  35.773  23.705
1379.62  35.773  23.705
1380.12  35.773  23.674
1380.62  35.837  23.674
1381.12  35.709  23.674
1381.62  35.709  23.674
1382.12  35.773  23.643
1382.62  35.837  23.705
1383.12  35.709  23.674
1383.62  35.709  23.705
1384.12  35.709  23.674
1384.62  35.773  23.674
1385.12  35.773  23.674
1385.62  35.773  23.674
1386.12  35.773  23.674
1386.62  35.773  23.705
1387.12  35.773  23.705
1387.62  35.773  23.643
1388.12  35.773  23.705
1388.62  35.709  23.674
1389.12  35.837  23.674
1389.62  35.773  23.705
1390.12  35.773  23.705
1390.62  35.773  23.705
1391.12  35.773  23.705
1391.62  35.773  23.643
1392.12  35.773  23.705
1392.62  35.837  23.674
1393.12  35.837  23.705
1393.62  35.773  23.705
1394.12  35.773  23.674
1394.62  35.773  23.674
1395.12  35.709  23.674
1395.62  35.709  23.735
1396.12  35.773  23.674
1396.62  35.837  23.705
1397.12  35.773  23.612
1397.62  35.773  23.674
1398.12  35.773  23.705
1398.62  35.773  23.705
1399.12  35.773  23.705
1399.62  35.837  23.705
1400.12  35.709  23.674
1400.62  35.837  23.705
1401.12  35.773  23.705
1401.62  35.773  23.674
1402.12  35.773  23.674
1402.62  35.709  23.705
1403.12  35.773  23.705
1403.62  35.837  23.705
1404.12  35.773  23.705
1404.62  35.837  23.735
1405.12  35.837  23.705
1405.62  35.773  23.705
1406.12  35.773  23.674
1406.62  35.837  23.705
1407.12  35.837  23.674
1407.62  35.773  23.705
1408.12  35.709  23.705
1408.62  35.709  23.705
1409.12  35.837  23.705
1409.62  35.837  23.674
1410.12  35.773  23.674
1410.62  35.837  23.674
1411.12  35.837  23.705
1411.62  35.773  23.674
1412.12  35.837  23.735
1412.62  35.837  23.705
1413.12  35.773  23.674
1413.62  35.837  23.643
1414.12  35.773  23.705
1414.62  35.709  23.705
1415.12  35.837  23.674
1415.62  35.837  23.705
1416.13  35.837  23.705
1416.63  35.773  23.674
1417.13  35.837  23.674
1417.63  35.837  23.674
1418.13  35.837  23.674
1418.63  35.837  23.674
1419.13  35.837  23.674
1419.63  35.773  23.705
1420.13  35.837  23.674
1420.63  35.773  23.643
1421.13  35.773  23.674
1421.63  35.773  23.705
1422.13  35.837  23.674
1422.63  35.837  23.674
1423.13  35.773  23.674
1423.63  35.773  23.674
1424.13  35.773  23.674
1424.63  35.837  23.674
1425.13  35.837  23.705
1425.63  35.837  23.674
1426.13  35.773  23.674
1426.63  35.837  23.735
1427.13  35.837  23.705
1427.63  35.773  23.643
1428.13  35.837  23.735
1428.63  35.837  23.674
1429.13  35.773  23.674
1429.63  35.837  23.705
1430.13  35.965  23.674
1430.63  35.773  23.705
1431.13  35.837  23.643
1431.63  35.773  23.705
1432.13  35.837  23.674
1432.63  35.837  23.674
1433.13  35.837  23.705
1433.63  35.837  23.674
1434.13  35.837  23.705
1434.63  35.901  23.705
1435.13  35.901  23.705
1435.63  35.837  23.674
1436.13  35.901  23.705
1436.63  35.837  23.674
1437.13  35.837  23.674
1437.63  35.837  23.705
1438.13  35.773  23.674
1438.63  35.773  23.705
1439.13  35.773  23.705
1439.63  35.901  23.643
1440.13  35.837  23.766
1440.63  35.837  23.705
1441.13  35.837  23.643
1441.63  35.965  23.735
1442.13  35.773  23.705
1442.63  35.837  23.705
1443.13  35.965  23.674
1443.63  35.901  23.705
1444.13  35.901  23.705
1444.63  35.837  23.674
1445.13  35.837  23.735
1445.63  35.837  23.705
1446.13  35.837  23.674
1446.63  35.901  23.735
1447.13  35.837  23.705
1447.63  35.901  23.705
1448.13  35.837  23.735
1448.63  35.837  23.705
1449.13  35.901  23.705
1449.63  35.965  23.705
1450.13  35.901  23.735
1450.63  35.901  23.674
1451.13  35.901  23.705
1451.63  35.837  23.735
1452.13  35.901  23.705
1452.63  35.837  23.705
1453.13  35.901  23.705
1453.63  35.901  23.705
1454.13  35.901  23.705
1454.63  35.901  23.735
1455.13  35.965  23.705
1455.63  35.901  23.705
1456.13  35.901  23.705
1456.63  35.901  23.705
1457.13  35.837  23.705
1457.63  35.901  23.705
1458.13  35.901  23.643
1458.63  35.837  23.705
1459.13  35.965  23.674
1459.63  35.773  23.705
1460.13  35.901  23.705
1460.63  35.837  23.705
1461.13  35.901  23.705
1461.63  35.901  23.674
1462.13  35.901  23.705
1462.63  35.901  23.705
1463.13  35.901  23.705
1463.63  35.901  23.735
1464.13  35.901  23.705
1464.63  35.901  23.705
1465.13  35.901  23.735
1465.63  35.901  23.705
1466.13  35.901  23.766
1466.63  35.901  23.705
1467.13  35.901  23.735
1467.63  35.901  23.705
1468.13  35.965  23.705
1468.63  36.093  23.705
1469.13  35.901  23.735
1469.63  35.901  23.705
1470.13  35.837  23.705
1470.63  35.901  23.674
1471.13  35.901  23.735
1471.63  35.901  23.705
1472.13  35.965  23.735
1472.63  35.965  23.705
1473.13  35.901  23.705
1473.63  35.965  23.705
1474.13  35.901  23.735
1474.63  35.837  23.674
1475.13  35.837  23.705
1475.63  35.901  23.705
1476.13  35.965  23.705
1476.63  35.965  23.674
1477.13  35.901  23.735
1477.63  35.901  23.674
1478.13  35.773  23.705
1478.63  35.901  23.735
1479.13  35.901  23.705
1479.63  35.965  23.674
1480.13  35.901  23.705
1480.63  35.901  23.705
1481.13  35.901  23.705
1481.63  35.901  23.705
1482.13  35.965  23.705
1482.63  36.029  23.735
1483.13  35.901  23.766
1483.63  35.965  23.705
1484.13  35.965  23.705
1484.63  35.901  23.735
1485.13  35.901  23.705
1485.63  35.901  23.705
1486.13  35.901  23.735
1486.63  35.901  23.674
1487.13  35.901  23.735
1487.63  35.965  23.705
1488.13  35.901  23.735
1488.63  35.965  23.674
1489.13  35.965  23.705
1489.63  35.965  23.705
1490.13  35.965  23.705
1490.63  35.901  23.735
1491.13  35.901  23.705
1491.63  35.965  23.674
1492.13  35.901  23.674
1492.63  35.965  23.735
1493.13  35.901  23.705
1493.63  36.029  23.705
1494.13  35.965  23.735
1494.63  35.965  23.735
1495.13  35.901  23.705
1495.63  35.965  23.674
1496.13  35.965  23.735
1496.63  35.965  23.705
1497.13  35.965  23.705
1497.63  35.901  23.705
1498.13  35.965  23.705
1498.63  36.029  23.705
1499.13  35.901  23.705
1499.63  35.901  23.674
1500.13  35.965  23.705
1500.63  35.965  23.705
1501.13  35.901  23.705
1501.63  35.901  23.735
1502.13  35.965  23.705
1502.63  35.965  23.705
1503.13  36.029  23.674
1503.63  36.029  23.705
1504.13  35.965  23.705
1504.63  35.965  23.705
1505.13  35.965  23.735
1505.63  35.965  23.735
1506.13  35.965  23.674
1506.63  36.029  23.705
1507.13  35.965  23.705
1507.63  35.965  23.674
1508.13  35.965  23.705
1508.63  35.965  23.705
1509.13  35.965  23.705
1509.63  36.029  23.705
1510.13  35.965  23.705
1510.63  35.965  23.674
1511.13  35.965  23.705
1511.63  36.093  23.705
1512.13  35.965  23.705
1512.63  35.965  23.735
1513.13  35.901  23.705
1513.63  35.965  23.705
1514.13  35.901  23.735
1514.63  36.093  23.735
1515.13  35.965  23.674
1515.63  35.965  23.705
1516.13  35.965  23.705
1516.63  35.965  23.735
1517.13  36.029  23.735
1517.63  36.029  23.705
1518.13  36.029  23.735
1518.63  35.965  23.705
1519.13  36.029  23.705
1519.63  36.029  23.705
1520.13  35.965  23.766
1520.63  35.965  23.735
1521.13  35.965  23.735
1521.63  36.093  23.705
1522.13  35.965  23.705
1522.63  35.965  23.705
1523.13  35.901  23.735
1523.63  36.029  23.705
1524.13  36.029  23.735
1524.63  36.093  23.705
1525.13  35.901  23.735
1525.63  36.093  23.735
1526.13  35.965  23.674
1526.63  35.965  23.766
1527.13  36.029  23.705
1527.63  36.029  23.735
1528.13  36.093  23.735
1528.63  35.901  23.705
1529.13  35.965  23.735
1529.64  36.029  23.705
1530.14  35.965  23.735
1530.64  36.029  23.705
1531.14  36.029  23.705
1531.64  36.029  23.705
1532.14  35.901  23.766
1532.64  36.029  23.735
1533.14  35.837  23.735
1533.64  35.965  23.735
1534.14  36.029  23.705
1534.64  35.901  23.674
1535.14  36.029  23.735
1535.64  36.029  23.735
1536.14  36.029  23.705
1536.64  36.029  23.705
1537.14  35.965  23.705
1537.64  36.029  23.705
1538.14  35.965  23.705
1538.64  36.029  23.735
1539.14  36.029  23.735
1539.64  36.029  23.735
1540.14  36.029  23.705
1540.64  35.965  23.735
1541.14  36.029  23.735
1541.64  36.029  23.735
1542.14  36.029  23.735
1542.64  36.029  23.735
1543.14  36.029  23.735
1543.64  36.029  23.735
1544.14  36.029  23.735
1544.64  36.029  23.766
1545.14  36.221  23.735
1545.64  36.029  23.735
1546.14  36.029  23.735
1546.64  36.093  23.735
1547.14  36.029  23.705
1547.64  36.029  23.735
1548.14  36.029  23.766
1548.64  36.029  23.735
1549.14  36.029  23.735
1549.64  36.029  23.735
1550.14  36.029  23.735
1550.64  36.029  23.735
1551.14  36.029  23.797
1551.64  36.029  23.735
1552.14  36.093  23.735
1552.64  36.093  23.705
1553.14  36.029  23.735
1553.64  36.029  23.705
1554.14  35.965  23.735
1554.64  36.029  23.705
1555.14  36.029  23.735
1555.64  36.093  23.735
1556.14  36.029  23.735
1556.64  36.029  23.735
1557.14  36.029  23.705
1557.64  36.029  23.735
1558.14  36.093  23.705
1558.64  36.093  23.735
1559.14  36.157  23.735
1559.64  36.029  23.735
1560.14  36.029  23.735
1560.64  36.093  23.705
1561.14  36.029  23.705
1561.64  36.093  23.674
1562.14  36.093  23.735
1562.64  36.029  23.735
1563.14  36.093  23.735
1563.64  36.093  23.735
1564.14  36.093  23.735
1564.64  36.029  23.735
1565.14  36.093  23.735
1565.64  36.093  23.735
1566.14  36.093  23.735
1566.64  36.093  23.766
1567.14  36.029  23.735
1567.64  36.093  23.735
1568.14  36.221  23.735
1568.64  36.093  23.705
1569.14  36.029  23.735
1569.64  36.029  23.766
1570.14  36.029  23.766
1570.64  36.029  23.735
1571.14  36.093  23.735
1571.64  35.965  23.735
1572.14  36.029  23.735
1572.64  36.157  23.735
1573.14  36.093  23.674
1573.64  36.093  23.735
1574.14  36.093  23.705
1574.64  36.093  23.797
1575.14  36.029  23.705
1575.64  36.157  23.705
1576.14  36.029  23.735
1576.64  36.093  23.766
1577.14  36.157  23.735
1577.64  36.029  23.735
1578.14  36.093  23.705
1578.64  36.093  23.735
1579.14  36.093  23.735
1579.64  36.093  23.735
1580.14  36.093  23.735
1580.64  36.093  23.705
1581.14  36.093  23.735
1581.64  36.093  23.705
1582.14  36.093  23.735
1582.64  36.157  23.705
1583.14  36.029  23.766
1583.64  36.093  23.735
1584.14  36.093  23.735
1584.64  36.029  23.705
1585.14  36.093  23.705
1585.64  36.029  23.735
1586.14  36.093  23.735
1586.64  36.093  23.735
1587.14  36.029  23.735
1587.64  36.093  23.705
1588.14  36.157  23.705
1588.64  36.157  23.705
1589.14  36.029  23.797
1589.64  36.157  23.735
1590.14  36.093  23.735
1590.64  36.093  23.705
1591.14  36.093  23.735
1591.64  36.093  23.735
1592.14  36.093  23.705
1592.64  36.029  23.735
1593.14  36.093  23.766
1593.64  36.157  23.705
1594.14  36.093  23.766
1594.64  36.029  23.735
1595.14  36.093  23.705
1595.64  36.157  23.735
1596.14  36.093  23.735
1596.64  36.157  23.705
1597.14  36.093  23.705
1597.64  36.093  23.705
1598.14  36.157  23.735
1598.64  36.157  23.705
1599.14  36.029  23.735
1599.64  36.093  23.735
1600.14  36.093  23.735
1600.64  36.093  23.735
1601.14  36.093  23.735
1601.64  36.157  23.735
1602.14  36.157  23.735
1602.64  36.093  23.735
1603.14  36.093  23.766
1603.64  36.157  23.735
1604.14  36.157  23.735
1604.64  36.093  23.735
1605.14  36.157  23.735
1605.64  36.093  23.705
1606.14  36.157  23.705
1606.64  36.093  23.766
1607.14  36.285  23.735
1607.64  36.093  23.735
1608.14  36.157  23.735
1608.64  36.157  23.705
1609.14  36.221  23.766
1609.64  36.157  23.766
1610.14  36.157  23.705
1610.64  36.157  23.735
1611.14  36.157  23.735
1611.64  36.093  23.735
1612.14  36.221  23.735
1612.64  36.157  23.735
1613.14  36.093  23.735
1613.64  36.157  23.735
1614.14  36.157  23.735
1614.64  36.157  23.735
1615.14  36.157  23.735
1615.64  36.221  23.705
1616.14  36.157  23.705
1616.64  36.157  23.735
1617.14  36.093  23.766
1617.64  36.157  23.735
1618.14  36.157  23.735
1618.64  36.221  23.735
1619.14  36.093  23.735
1619.64  36.157  23.766
1620.14  36.157  23.735
1620.64  36.157  23.705
1621.14  36.029  23.735
1621.64  36.029  23.735
1622.14  36.221  23.766
1622.64  36.093  23.735
1623.14  36.285  23.735
1623.64  36.221  23.766
1624.14  36.157  23.705
1624.64  36.093  23.735
1625.14  36.221  23.766
1625.64  36.349  23.766
1626.14  36.157  23.766
1626.64  36.093  23.735
1627.14  36.221  23.766
1627.64  36.093  23.735
1628.14  36.221  23.766
1628.64  36.157  23.735
1629.14  36.157  23.735
1629.64  36.221  23.766
1630.14  36.157  23.735
1630.64  36.221  23.766
1631.14  36.157  23.797
1631.64  36.093  23.735
1632.14  36.221  23.766
1632.64  36.157  23.766
1633.14  36.221  23.766
1633.64  36.221  23.766
1634.14  36.157  23.766
1634.64  36.157  23.766
1635.14  36.157  23.766
1635.64  36.093  23.705
1636.14  36.093  23.735
1636.64  36.157  23.735
1637.14  36.349  23.735
1637.64  36.221  23.766
1638.14  36.221  23.735
1638.64  36.157  23.766
1639.14  36.157  23.735
1639.64  36.093  23.766
1640.14  36.221  23.766
1640.64  36.157  23.735
1641.14  36.221  23.735
1641.64  36.285  23.766
1642.14  36.221  23.797
1642.65  36.221  23.735
1643.15  36.221  23.766
1643.65  36.157  23.797
1644.15  36.285  23.766
1644.65  36.157  23.766
1645.15  36.221  23.735
1645.65  36.221  23.766
1646.15  36.157  23.797
1646.65  36.157  23.766
1647.15  36.157  23.735
1647.65  36.157  23.766
1648.15  36.221  23.735
1648.65  36.221  23.735
1649.15  36.157  23.766
1649.65  36.221  23.766
1650.15  36.221  23.705
1650.65  36.221  23.766
1651.15  36.221  23.797
1651.65  36.157  23.735
1652.15  36.221  23.705
1652.65  36.221  23.766
1653.15  36.157  23.735
1653.65  36.221  23.735
1654.15  36.221  23.797
1654.65  36.221  23.766
1655.15  36.285  23.735
1655.65  36.221  23.766
1656.15  36.221  23.735
1656.65  36.157  23.766
1657.15  36.221  23.735
1657.65  36.221  23.766
1658.15  36.221  23.735
1658.65  36.221  23.766
1659.15  36.157  23.766
1659.65  36.221  23.766
1660.15  36.221  23.766
1660.65  36.157  23.766
1661.15  36.157  23.766
1661.65  36.157  23.766
1662.15  36.221  23.766
1662.65  36.285  23.766
1663.15  36.221  23.735
1663.65  36.221  23.797
1664.15  36.221  23.766
1664.65  36.221  23.735
1665.15  36.157  23.766
1665.65  36.221  23.735
1666.15  36.221  23.766
1666.65  36.157  23.735
1667.15  36.221  23.735
1667.65  36.285  23.766
1668.15  36.221  23.766
1668.65  36.157  23.735
1669.15  36.221  23.766
1669.65  36.285  23.735
1670.15  36.221  23.766
1670.65  36.221  23.735
1671.15  36.221  23.735
1671.65  36.221  23.766
1672.15  36.221  23.766
1672.65  36.157  23.766
1673.15  36.221  23.766
1673.65  36.285  23.766
1674.15  36.221  23.766
1674.65  36.221  23.766
1675.15  36.157  23.735
1675.65  36.221  23.766
1676.15  36.221  23.766
1676.65  36.221  23.766
1677.15  36.349  23.766
1677.65  36.221  23.766
1678.15  36.221  23.735
1678.65  36.221  23.797
1679.15  36.221  23.735
1679.65  36.221  23.735
1680.15  36.221  23.766
1680.65  36.285  23.766
1681.15  36.221  23.735
1681.65  36.285  23.766
1682.15  36.221  23.766
1682.65  36.221  23.828
1683.15  36.221  23.766
1683.65  36.157  23.735
1684.15  36.157  23.766
1684.65  36.221  23.766
1685.15  36.285  23.766
1685.65  36.221  23.766
1686.15  36.221  23.766
1686.65  36.221  23.766
1687.15  36.157  23.797
1687.65  36.285  23.766
1688.15  36.285  23.735
1688.65  36.221  23.828
1689.15  36.221  23.735
1689.65  36.221  23.797
1690.15  36.221  23.735
1690.65  36.285  23.735
1691.15  36.285  23.766
1691.65  36.157  23.735
1692.15  36.285  23.735
1692.65  36.285  23.797
1693.15  36.221  23.735
1693.65  36.221  23.766
1694.15  36.285  23.766
1694.65  36.285  23.766
1695.15  36.285  23.766
1695.65  36.285  23.766
1696.15  36.285  23.766
1696.65  36.285  23.766
1697.15  36.285  23.735
1697.65  36.221  23.766
1698.15  36.221  23.766
1698.65  36.157  23.766
1699.15  36.285  23.735
1699.65  36.285  23.766
1700.15  36.221  23.766
1700.65  36.285  23.766
1701.15  36.221  23.766
1701.65  36.221  23.735
1702.15  36.221  23.766
1702.65  36.285  23.766
1703.15  36.285  23.766
1703.65  36.285  23.735
1704.15  36.285  23.766
1704.65  36.285  23.705
1705.15  36.285  23.766
1705.65  36.349  23.766
1706.15  36.285  23.766
1706.65  36.285  23.766
1707.15  36.221  23.766
1707.65  36.413  23.766
1708.15  36.285  23.735
1708.65  36.285  23.766
1709.15  36.285  23.766
1709.65  36.349  23.766
1710.15  36.285  23.766
1710.65  36.285  23.766
1711.15  36.285  23.766
1711.65  36.285  23.766
1712.15  36.221  23.735
1712.65  36.157  23.797
1713.15  36.285  23.766
1713.65  36.285  23.766
1714.15  36.285  23.766
1714.65  36.285  23.735
1715.15  36.285  23.766
1715.65  36.285  23.766
1716.15  36.285  23.766
1716.65  36.349  23.766
1717.15  36.349  23.735
1717.65  36.349  23.766
1718.15  36.285  23.797
1718.65  36.285  23.766
1719.15  36.285  23.766
1719.65  36.221  23.735
1720.15  36.349  23.766
1720.65  36.285  23.797
1721.15  36.285  23.766
1721.65  36.285  23.797
1722.15  36.349  23.766
1722.65  36.285  23.766
1723.15  36.285  23.797
1723.65  36.349  23.797
1724.15  36.285  23.766
1724.65  36.285  23.766
1725.15  36.285  23.766
1725.65  36.221  23.797
1726.15  36.349  23.735
1726.65  36.349  23.766
1727.15  36.349  23.766
1727.65  36.221  23.735
1728.15  36.349  23.766
1728.65  36.285  23.828
1729.15  36.349  23.766
1729.65  36.349  23.797
1730.15  36.349  23.766
1730.65  36.413  23.797
1731.15  36.285  23.735
1731.65  36.285  23.766
1732.15  36.349  23.766
1732.65  36.349  23.735
1733.15  36.285  23.766
1733.65  36.221  23.766
1734.15  36.285  23.797
1734.65  36.285  23.766
1735.15  36.349  23.766
1735.65  36.349  23.766
1736.15  36.349  23.766
1736.65  36.285  23.766
1737.15  36.285  23.766
1737.65  36.285  23.797
1738.15  36.285  23.766
1738.65  36.349  23.797
1739.15  36.349  23.766
1739.65  36.221  23.797
1740.15  36.349  23.766
1740.65  36.349  23.766
1741.15  36.285  23.735
1741.65  36.285  23.766
1742.15  36.349  23.797
1742.65  36.413  23.828
1743.15  36.285  23.766
1743.65  36.349  23.797
1744.15  36.285  23.766
1744.65  36.349  23.797
1745.15  36.349  23.766
1745.65  36.349  23.766
1746.15  36.413  23.797
1746.65  36.285  23.766
1747.15  36.349  23.735
1747.65  36.349  23.828
1748.15  36.349  23.797
1748.65  36.285  23.735
1749.15  36.349  23.766
1749.65  36.349  23.766
1750.15  36.285  23.766
1750.65  36.285  23.797
1751.15  36.349  23.766
1751.65  36.349  23.766
1752.15  36.285  23.797
1752.65  36.349  23.766
1753.15  36.285  23.766
1753.65  36.285  23.766
1754.15  36.285  23.766
1754.65  36.349  23.766
1755.15  36.285  23.735
1755.66  36.285  23.766
1756.16  36.285  23.766
1756.66  36.285  23.766
1757.16  36.349  23.766
1757.66  36.349  23.766
1758.16  36.285  23.797
1758.66  36.349  23.766
1759.16  36.349  23.766
1759.66  36.349  23.766
1760.16  36.413  23.766
1760.66  36.349  23.766
1761.16  36.285  23.735
1761.66  36.349  23.766
1762.16  36.349  23.766
1762.66  36.349  23.766
1763.16  36.285  23.735
1763.66  36.349  23.797
1764.16  36.285  23.766
1764.66  36.349  23.766
1765.16  36.349  23.735
1765.66  36.349  23.797
1766.16  36.349  23.766
1766.66  36.285  23.766
1767.16  36.349  23.797
1767.66  36.413  23.766
1768.16  36.349  23.828
1768.66  36.349  23.797
1769.16  36.349  23.735
1769.66  36.349  23.766
1770.16  36.413  23.766
1770.66  36.349  23.797
1771.16  36.413  23.797
1771.66  36.413  23.766
1772.16  36.349  23.797
1772.66  36.285  23.766
1773.16  36.349  23.766
1773.66  36.349  23.766
1774.16  36.413  23.766
1774.66  36.349  23.797
1775.16  36.413  23.797
1775.66  36.413  23.797
1776.16  36.349  23.797
1776.66  36.413  23.766
1777.16  36.413  23.797
1777.66  36.413  23.766
1778.16  36.349  23.766
1778.66  36.413  23.766
1779.16  36.413  23.797
1779.66  36.413  23.889
1780.16  36.349  23.797
1780.66  36.413  23.797
1781.16  36.413  23.797
1781.66  36.541  23.797
1782.16  36.413  23.766
1782.66  36.349  23.766
1783.16  36.413  23.766
1783.66  36.413  23.828
1784.16  36.349  23.766
1784.66  36.413  23.766
1785.16  36.413  23.797
1785.66  36.413  23.797
1786.16  36.413  23.766
1786.66  36.413  23.797
1787.16  36.413  23.797
1787.66  36.413  23.797
1788.16  36.413  23.766
1788.66  36.349  23.797
1789.16  36.413  23.766
1789.66  36.413  23.797
1790.16  36.413  23.797
1790.66  36.349  23.797
1791.16  36.413  23.797
1791.66  36.413  23.828
1792.16  36.413  23.735
1792.66  36.541  23.766
1793.16  36.413  23.797
1793.66  36.413  23.828
1794.16  36.413  23.859
1794.66  36.349  23.797
1795.16  36.413  23.797
1795.66  36.349  23.766
1796.16  36.285  23.766
1796.66  36.413  23.797
1797.16  36.349  23.797
1797.66  36.413  23.797
1798.16  36.413  23.735
1798.66  36.413  23.797
1799.16  36.413  23.797
1799.66  36.413  23.735
1800.16  36.413  23.797
1800.66  36.349  23.797
1801.16  36.349  23.797
1801.66  36.477  23.828
1802.16  36.349  23.766
1802.66  36.413  23.797
1803.16  36.349  23.797
1803.66  36.413  23.766
1804.16  36.477  23.797
1804.66  36.413  23.797
1805.16  36.349  23.766
1805.66  36.349  23.766
1806.16  36.413  23.797
1806.66  36.413  23.797
1807.16  36.477  23.766
1807.66  36.285  23.797
1808.16  36.413  23.828
1808.66  36.413  23.797
1809.16  36.413  23.735
1809.66  36.349  23.766
1810.16  36.413  23.828
1810.66  36.413  23.797
1811.16  36.413  23.828
1811.66  36.477  23.735
1812.16  36.413  23.766
1812.66  36.413  23.797
1813.16  36.349  23.797
1813.66  36.413  23.766
1814.16  36.349  23.766
1814.66  36.413  23.766
1815.16  36.413  23.797
1815.66  36.349  23.797
1816.16  36.413  23.797
1816.66  36.413  23.797
1817.16  36.477  23.828
1817.66  36.413  23.766
1818.16  36.413  23.828
1818.66  36.413  23.797
1819.16  36.477  23.766
1819.66  36.413  23.797
1820.16  36.477  23.797
1820.66  36.413  23.797
1821.16  36.477  23.797
1821.66  36.477  23.828
1822.16  36.477  23.797
1822.66  36.413  23.797
1823.16  36.413  23.828
1823.66  36.413  23.766
1824.16  36.413  23.797
1824.66  36.541  23.797
1825.16  36.413  23.797
1825.66  36.413  23.766
1826.16  36.349  23.797
1826.66  36.413  23.797
1827.16  36.413  23.797
1827.66  36.413  23.766
1828.16  36.413  23.797
1828.66  36.413  23.797
1829.16  36.413  23.797
1829.66  36.413  23.797
1830.16  36.477  23.828
1830.66  36.413  23.766
1831.16  36.413  23.828
1831.66  36.413  23.797
1832.16  36.413  23.797
1832.66  36.349  23.828
1833.16  36.413  23.797
1833.66  36.349  23.797
1834.16  36.413  23.797
1834.66  36.477  23.766
1835.16  36.477  23.797
1835.66  36.413  23.766
1836.16  36.477  23.797
1836.66  36.413  23.797
1837.16  36.413  23.797
1837.66  36.413  23.889
1838.16  36.413  23.766
1838.66  36.413  23.797
1839.16  36.477  23.797
1839.66  36.349  23.797
1840.16  36.413  23.797
1840.66  36.477  23.797
1841.16  36.477  23.797
1841.66  36.477  23.766
1842.16  36.477  23.797
1842.66  36.477  23.797
1843.16  36.477  23.889
1843.66  36.413  23.766
1844.16  36.413  23.797
1844.66  36.477  23.828
1845.16  36.413  23.828
1845.66  36.477  23.766
1846.16  36.413  23.797
1846.66  36.413  23.797
1847.16  36.413  23.797
1847.66  36.477  23.797
1848.16  36.413  23.797
1848.66  36.477  23.797
1849.16  36.477  23.828
1849.66  36.477  23.797
1850.16  36.413  23.766
1850.66  36.349  23.797
1851.16  36.477  23.797
1851.66  36.541  23.828
1852.16  36.413  23.828
1852.66  36.413  23.797
1853.16  36.477  23.828
1853.66  36.477  23.797
1854.16  36.349  23.766
1854.66  36.413  23.828
1855.16  36.477  23.797
1855.66  36.477  23.797
1856.16  36.413  23.828
1856.66  36.477  23.828
1857.16  36.477  23.797
1857.66  36.477  23.797
1858.16  36.477  23.797
1858.66  36.413  23.797
1859.16  36.477  23.828
1859.66  36.605  23.828
1860.16  36.413  23.797
1860.66  36.541  23.828
1861.16  36.477  23.797
1861.66  36.541  23.828
1862.16  36.477  23.828
1862.66  36.477  23.828
1863.16  36.477  23.828
1863.66  36.477  23.828
1864.16  36.541  23.828
1864.66  36.477  23.828
1865.16  36.541  23.797
1865.66  36.541  23.735
1866.16  36.477  23.797
1866.66  36.477  23.797
1867.16  36.541  23.797
1867.66  36.477  23.797
1868.16  36.477  23.828
1868.66  36.477  23.797
1869.17  36.477  23.797
1869.67  36.541  23.797
1870.17  36.477  23.828
1870.67  36.477  23.797
1871.17  36.477  23.797
1871.67  36.541  23.766
1872.17  36.477  23.797
1872.67  36.413  23.797
1873.17  36.477  23.797
1873.67  36.477  23.828
1874.17  36.477  23.797
1874.67  36.477  23.797
1875.17  36.477  23.797
1875.67  36.477  23.797
1876.17  36.413  23.766
1876.67  36.477  23.797
1877.17  36.541  23.797
1877.67  36.477  23.797
1878.17  36.477  23.766
1878.67  36.477  23.797
1879.17  36.477  23.828
1879.67  36.477  23.828
1880.17  36.477  23.797
1880.67  36.541  23.797
1881.17  36.477  23.797
1881.67  36.477  23.797
1882.17  36.541  23.797
1882.67  36.541  23.828
1883.17  36.477  23.797
1883.67  36.477  23.797
1884.17  36.541  23.797
1884.67  36.477  23.828
1885.17  36.413  23.797
1885.67  36.477  23.797
1886.17  36.477  23.828
1886.67  36.541  23.766
1887.17  36.477  23.797
1887.67  36.541  23.828
1888.17  36.477  23.797
1888.67  36.477  23.797
1889.17  36.541  23.797
1889.67  36.413  23.797
1890.17  36.541  23.797
1890.67  36.541  23.797
1891.17  36.541  23.797
1891.67  36.605  23.797
1892.17  36.541  23.828
1892.67  36.477  23.797
1893.17  36.541  23.797
1893.67  36.477  23.797
1894.17  36.477  23.828
1894.67  36.477  23.828
1895.17  36.477  23.797
1895.67  36.541  23.797
1896.17  36.477  23.766
1896.67  36.477  23.797
1897.17  36.605  23.797
1897.67  36.541  23.797
1898.17  36.477  23.766
1898.67  36.605  23.859
1899.17  36.477  23.889
1899.67  36.605  23.859
1900.17  36.541  23.859
1900.67  36.477  23.828
1901.17  36.541  23.828
1901.67  36.477  23.828
1902.17  36.541  23.797
1902.67  36.541  23.797
1903.17  36.541  23.828
1903.67  36.541  23.797
1904.17  36.477  23.766
1904.67  36.477  23.766
1905.17  36.477  23.797
1905.67  36.541  23.828
1906.17  36.541  23.828
1906.67  36.541  23.797
1907.17  36.541  23.797
1907.67  36.477  23.828
1908.17  36.541  23.828
1908.67  36.541  23.797
1909.17  36.541  23.797
1909.67  36.541  23.797
1910.17  36.477  23.828
1910.67  36.477  23.766
1911.17  36.541  23.828
1911.67  36.541  23.797
1912.17  36.541  23.828
1912.67  36.541  23.797
1913.17  36.477  23.828
1913.67  36.541  23.828
1914.17  36.541  23.797
1914.67  36.541  23.828
1915.17  36.541  23.797
1915.67  36.541  23.797
1916.17  36.541  23.828
1916.67  36.477  23.766
1917.17  36.477  23.859
1917.67  36.541  23.828
1918.17  36.477  23.797
1918.67  36.605  23.797
1919.17  36.541  23.797
1919.67  36.541  23.828
1920.17  36.541  23.828
1920.67  36.605  23.828
1921.17  36.477  23.797
1921.67  36.541  23.797
1922.17  36.413  23.828
1922.67  36.605  23.797
1923.17  36.541  23.797
1923.67  36.605  23.828
1924.17  36.541  23.797
1924.67  36.605  23.828
1925.17  36.605  23.828
1925.67  36.605  23.859
1926.17  36.541  23.797
1926.67  36.541  23.797
1927.17  36.477  23.766
1927.67  36.541  23.797
1928.17  36.477  23.797
1928.67  36.541  23.828
1929.17  36.541  23.828
1929.67  36.605  23.828
1930.17  36.541  23.797
1930.67  36.605  23.797
1931.17  36.541  23.797
1931.67  36.541  23.797
1932.17  36.477  23.828
1932.67  36.541  23.859
1933.17  36.541  23.797
1933.67  36.541  23.766
1934.17  36.541  23.797
1934.67  36.541  23.797
1935.17  36.541  23.828
1935.67  36.605  23.828
1936.17  36.541  23.859
1936.67  36.541  23.828
1937.17  36.541  23.797
1937.67  36.477  23.828
1938.17  36.541  23.828
1938.67  36.541  23.766
1939.17  36.605  23.828
1939.67  36.541  23.828
1940.17  36.541  23.828
1940.67  36.541  23.797
1941.17  36.541  23.797
1941.67  36.541  23.828
1942.17  36.541  23.797
1942.67  36.541  23.828
1943.17  36.605  23.828
1943.67  36.541  23.828
1944.17  36.541  23.828
1944.67  36.605  23.828
1945.17  36.541  23.797
1945.67  36.541  23.797
1946.17  36.541  23.828
1946.67  36.541  23.797
1947.17  36.605  23.766
1947.67  36.797  23.828
1948.17  36.541  23.828
1948.67  36.605  23.859
1949.17  36.605  23.797
1949.67  36.541  23.828
1950.17  36.541  23.828
1950.67  36.541  23.828
1951.17  36.541  23.828
1951.67  36.605  23.828
1952.17  36.477  23.797
1952.67  36.605  23.828
1953.17  36.605  23.797
1953.67  36.605  23.828
1954.17  36.605  23.828
1954.67  36.541  23.828
1955.17  36.541  23.859
1955.67  36.605  23.828
1956.17  36.541  23.797
1956.67  36.605  23.828
1957.17  36.541  23.797
1957.67  36.605  23.828
1958.17  36.541  23.859
1958.67  36.605  23.828
1959.17  36.605  23.828
1959.67  36.541  23.828
1960.17  36.605  23.828
1960.67  36.541  23.828
1961.17  36.541  23.828
1961.67  36.477  23.828
1962.17  36.605  23.797
1962.67  36.541  23.828
1963.17  36.605  23.828
1963.67  36.605  23.797
1964.17  36.669  23.828
1964.67  36.541  23.859
1965.17  36.541  23.828
1965.67  36.605  23.859
1966.17  36.541  23.828
1966.67  36.541  23.828
1967.17  36.541  23.797
1967.67  36.541  23.797
1968.17  36.541  23.797
1968.67  36.605  23.828
1969.17  36.605  23.859
1969.67  36.605  23.859
1970.17  36.605  23.859
1970.67  36.605  23.828
1971.17  36.669  23.828
1971.67  36.605  23.828
1972.17  36.733  23.828
1972.67  36.669  23.828
1973.17  36.605  23.797
1973.67  36.605  23.889
1974.17  36.605  23.828
1974.67  36.541  23.859
1975.17  36.605  23.859
1975.67  36.733  23.828
1976.17  36.669  23.797
1976.67  36.669  23.828
1977.17  36.541  23.828
1977.67  36.669  23.859
1978.17  36.605  23.828
1978.67  36.669  23.828
1979.17  36.605  23.859
1979.67  36.669  23.828
1980.17  36.605  23.859
1980.67  36.605  23.828
1981.17  36.541  23.828
1981.67  36.605  23.797
1982.18  36.605  23.859
1982.68  36.605  23.828
1983.18  36.605  23.828
1983.68  36.669  23.797
1984.18  36.605  23.828
1984.68  36.605  23.828
1985.18  36.605  23.859
1985.68  36.541  23.828
1986.18  36.605  23.828
1986.68  36.541  23.828
1987.18  36.605  23.828
1987.68  36.669  23.828
1988.18  36.669  23.859
1988.68  36.605  23.828
1989.18  36.605  23.797
1989.68  36.669  23.828
1990.18  36.605  23.859
1990.68  36.605  23.828
1991.18  36.605  23.797
1991.68  36.605  23.797
1992.18  36.605  23.828
1992.68  36.605  23.828
1993.18  36.541  23.828
1993.68  36.605  23.828
1994.18  36.669  23.828
1994.68  36.541  23.797
1995.18  36.605  23.828
1995.68  36.669  23.828
1996.18  36.605  23.828
1996.68  36.605  23.828
1997.18  36.605  23.859
1997.68  36.605  23.828
1998.18  36.605  23.859
1998.68  36.669  23.828
1999.18  36.669  23.828
1999.68  36.605  23.828
2000.18  36.605  23.797
2000.68  36.733  23.859
2001.18  36.605  23.828
2001.68  36.605  23.828
2002.18  36.605  23.859
2002.68  36.605  23.828
2003.18  36.605  23.797
2003.68  36.605  23.797
2004.18  36.605  23.828
2004.68  36.605  23.828
2005.18  36.605  23.859
2005.68  36.541  23.828
2006.18  36.669  23.828
2006.68  36.605  23.828
2007.18  36.669  23.828
2007.68  36.669  23.828
2008.18  36.669  23.828
2008.68  36.605  23.828
2009.18  36.605  23.859
2009.68  36.605  23.828
2010.18  36.605  23.797
2010.68  36.669  23.828
2011.18  36.605  23.797
2011.68  36.605  23.828
2012.18  36.669  23.828
2012.68  36.669  23.828
2013.18  36.605  23.828
2013.68  36.669  23.828
2014.18  36.669  23.859
2014.68  36.605  23.828
2015.18  36.669  23.828
2015.68  36.669  23.828
2016.18  36.669  23.828
2016.68  36.605  23.828
2017.18  36.733  23.828
2017.68  36.669  23.859
2018.18  36.669  23.859
2018.68  36.733  23.828
2019.18  36.605  23.797
2019.68  36.605  23.828
2020.18  36.669  23.828
2020.68  36.605  23.859
2021.18  36.669  23.828
2021.68  36.733  23.828
2022.18  36.669  23.828
2022.68  36.669  23.889
2023.18  36.669  23.859
2023.68  36.605  23.859
2024.18  36.605  23.797
2024.68  36.669  23.828
2025.18  36.669  23.889
2025.68  36.605  23.859
2026.18  36.669  23.859
2026.68  36.669  23.828
2027.18  36.669  23.828
2027.68  36.605  23.828
2028.18  36.733  23.859
2028.68  36.605  23.766
2029.18  36.605  23.828
2029.68  36.733  23.828
2030.18  36.605  23.859
2030.68  36.669  23.797
2031.18  36.669  23.859
2031.68  36.669  23.828
2032.18  36.669  23.828
2032.68  36.669  23.859
2033.18  36.733  23.828
2033.68  36.669  23.859
2034.18  36.669  23.859
2034.68  36.669  23.859
2035.18  36.605  23.859
2035.68  36.669  23.859
2036.18  36.669  23.859
2036.68  36.605  23.828
2037.18  36.733  23.859
2037.68  36.669  23.797
2038.18  36.669  23.797
2038.68  36.669  23.828
2039.18  36.669  23.828
2039.68  36.669  23.828
2040.18  36.733  23.828
2040.68  36.669  23.859
2041.18  36.797  23.889
2041.68  36.669  23.889
2042.18  36.797  23.828
2042.68  36.605  23.828
2043.18  36.733  23.828
2043.68  36.669  23.828
2044.18  36.605  23.828
2044.68  36.669  23.859
2045.18  36.669  23.828
2045.68  36.669  23.828
2046.18  36.669  23.828
2046.68  36.669  23.859
2047.18  36.605  23.828
2047.68  36.733  23.859
2048.18  36.669  23.828
2048.68  36.669  23.828
2049.18  36.733  23.889
2049.68  36.733  23.828
2050.18  36.605  23.859
2050.68  36.669  23.828
2051.18  36.669  23.859
2051.68  36.669  23.859
2052.18  36.669  23.828
2052.68  36.669  23.828
2053.18  36.669  23.828
2053.68  36.733  23.828
2054.18  36.669  23.859
2054.68  36.669  23.859
2055.18  36.733  23.828
2055.68  36.733  23.859
2056.18  36.669  23.859
2056.68  36.605  23.828
2057.18  36.669  23.828
2057.68  36.733  23.859
2058.18  36.541  23.828
2058.68  36.669  23.889
2059.18  36.669  23.859
2059.68  36.605  23.889
2060.18  36.669  23.797
2060.68  36.669  23.797
2061.18  36.669  23.828
2061.68  36.669  23.828
2062.18  36.733  23.828
2062.68  36.605  23.859
2063.18  36.669  23.828
2063.68  36.605  23.828
2064.18  36.669  23.828
2064.68  36.733  23.859
2065.18  36.605  23.859
2065.68  36.605  23.859
2066.18  36.669  23.828
2066.68  36.605  23.828
2067.18  36.797  23.859
2067.68  36.733  23.828
2068.18  36.733  23.859
2068.68  36.733  23.828
2069.18  36.669  23.828
2069.68  36.733  23.859
2070.18  36.605  23.828
2070.68  36.733  23.828
2071.18  36.669  23.859
2071.68  36.733  23.828
2072.18  36.669  23.859
2072.68  36.669  23.889
2073.18  36.669  23.859
2073.68  36.733  23.828
2074.18  36.733  23.859
2074.68  36.733  23.859
2075.18  36.669  23.828
2075.68  36.669  23.828
2076.18  36.797  23.859
2076.68  36.605  23.828
2077.18  36.669  23.859
2077.68  36.733  23.828
2078.18  36.733  23.920
2078.68  36.733  23.859
2079.18  36.733  23.828
2079.68  36.733  23.859
2080.18  36.733  23.828
2080.68  36.669  23.828
2081.18  36.669  23.859
2081.68  36.797  23.859
2082.18  36.733  23.828
2082.68  36.669  23.859
2083.18  36.733  23.797
2083.68  36.733  23.828
2084.18  36.669  23.859
2084.68  36.861  23.859
2085.18  36.733  23.859
2085.68  36.669  23.828
2086.18  36.733  23.859
2086.68  36.733  23.859
2087.18  36.733  23.828
2087.68  36.797  23.859
2088.18  36.605  23.859
2088.68  36.733  23.828
2089.18  36.669  23.828
2089.68  36.669  23.859
2090.18  36.733  23.859
2090.68  36.669  23.859
2091.18  36.669  23.828
2091.68  36.733  23.797
2092.18  36.669  23.859
2092.68  36.733  23.889
2093.18  36.733  23.859
2093.68  36.669  23.889
2094.18  36.733  23.859
2094.68  36.669  23.828
2095.19  36.797  23.859
2095.69  36.733  23.828
2096.19  36.669  23.859
2096.69  36.669  23.828
2097.19  36.733  23.859
2097.69  36.733  23.859
2098.19  36.733  23.889
2098.69  36.733  23.859
2099.19  36.733  23.828
2099.69  36.797  23.859
2100.19  36.669  23.828
2100.69  36.669  23.828
2101.19  36.669  23.859
2101.69  36.669  23.859
2102.19  36.733  23.859
2102.69  36.669  23.859
2103.19  36.669  23.859
2103.69  36.797  23.859
2104.19  36.733  23.859
2104.69  36.733  23.828
2105.19  36.733  23.828
2105.69  36.733  23.889
2106.19  36.669  23.859
2106.69  36.733  23.859
2107.19  36.733  23.859
2107.69  36.733  23.859
2108.19  36.733  23.859
2108.69  36.733  23.859
2109.19  36.669  23.859
2109.69  36.669  23.859
2110.19  36.733  23.859
2110.69  36.669  23.859
2111.19  36.733  23.859
2111.69  36.733  23.828
2112.19  36.733  23.828
2112.69  36.733  23.859
2113.19  36.605  23.828
2113.69  36.797  23.859
2114.19  36.797  23.889
2114.69  36.733  23.859
2115.19  36.733  23.859
2115.69  36.797  23.859
2116.19  36.733  23.859
2116.69  36.797  23.859
2117.19  36.733  23.859
2117.69  36.733  23.859
2118.19  36.669  23.859
2118.69  36.797  23.828
2119.19  36.797  23.859
2119.69  36.733  23.859
2120.19  36.733  23.859
2120.69  36.797  23.828
2121.19  36.797  23.859
2121.69  36.797  23.859
2122.19  36.733  23.889
2122.69  36.669  23.859
2123.19  36.733  23.797
2123.69  36.733  23.859
2124.19  36.733  23.859
2124.69  36.797  23.859
2125.19  36.733  23.889
2125.69  36.733  23.859
2126.19  36.797  23.828
2126.69  36.733  23.889
2127.19  36.733  23.889
2127.69  36.797  23.859
2128.19  36.797  23.859
2128.69  36.797  23.828
2129.19  36.733  23.859
2129.69  36.797  23.859
2130.19  36.861  23.889
2130.69  36.733  23.859
2131.19  36.733  23.859
2131.69  36.797  23.828
2132.19  36.733  23.828
2132.69  36.733  23.859
2133.19  36.797  23.859
2133.69  36.797  23.859
2134.19  36.797  23.859
2134.69  36.733  23.859
2135.19  36.797  23.859
2135.69  36.541  23.920
2136.19  36.797  23.889
2136.69  36.733  23.889
2137.19  36.733  23.889
2137.69  36.797  23.859
2138.19  36.797  23.889
2138.69  36.733  23.828
2139.19  36.861  23.889
2139.69  36.797  23.889
2140.19  36.797  23.889
2140.69  36.861  23.859
2141.19  36.733  23.889
2141.69  36.733  23.889
2142.19  36.797  23.889
2142.69  36.733  23.859
2143.19  36.797  23.889
2143.69  36.797  23.859
2144.19  36.733  23.859
2144.69  36.797  23.859
2145.19  36.797  23.828
2145.69  36.861  23.889
2146.19  36.669  23.859
2146.69  36.733  23.889
2147.19  36.797  23.889
2147.69  36.861  23.920
2148.19  36.797  23.889
2148.69  36.797  23.859
2149.19  36.797  23.859
2149.69  36.797  23.859
2150.19  36.669  23.889
2150.69  36.733  23.828
2151.19  36.733  23.859
2151.69  36.797  23.859
2152.19  36.797  23.889
2152.69  36.797  23.859
2153.19  36.733  23.859
2153.69  36.797  23.889
2154.19  36.797  23.859
2154.69  36.797  23.889
2155.19  36.733  23.828
2155.69  36.797  23.859
2156.19  36.733  23.859
2156.69  36.733  23.828
2157.19  36.797  23.859
2157.69  36.797  23.859
2158.19  36.797  23.889
2158.69  36.733  23.889
2159.19  36.733  23.859
2159.69  36.797  23.859
2160.19  36.797  23.859
2160.69  36.861  23.889
2161.19  36.797  23.828
2161.69  36.797  23.859
2162.19  36.797  23.889
2162.69  36.861  23.859
2163.19  36.733  23.859
2163.69  36.733  23.859
2164.19  36.733  23.889
2164.69  36.861  23.859
2165.19  36.797  23.859
2165.69  36.797  23.889
2166.19  36.797  23.859
2166.69  36.733  23.859
2167.19  36.797  23.859
2167.69  36.797  23.889
2168.19  36.797  23.859
2168.69  36.861  23.889
2169.19  36.797  23.859
2169.69  36.797  23.859
2170.19  36.861  23.859
2170.69  36.861  23.889
2171.19  36.797  23.859
2171.69  36.797  23.889
2172.19  36.797  23.920
2172.69  36.797  23.889
2173.19  36.797  23.828
2173.69  36.861  23.859
2174.19  36.733  23.859
2174.69  36.797  23.859
2175.19  36.797  23.828
2175.69  36.797  23.859
2176.19  36.797  23.889
2176.69  36.925  23.859
2177.19  36.861  23.859
2177.69  36.797  23.889
2178.19  36.861  23.828
2178.69  36.797  23.859
2179.19  36.797  23.889
2179.69  36.797  23.889
2180.19  36.797  23.889
2180.69  36.861  23.889
2181.19  36.733  23.889
2181.69  36.797  23.859
2182.19  36.861  23.889
2182.69  36.797  23.828
2183.19  36.797  23.859
2183.69  36.797  23.889
2184.19  36.797  23.859
2184.69  36.733  23.859
2185.19  36.797  23.859
2185.69  36.797  23.859
2186.19  36.861  23.859
2186.69  36.861  23.859
2187.19  36.797  23.859
2187.69  36.925  23.859
2188.19  36.733  23.889
2188.69  36.797  23.889
2189.19  36.861  23.889
2189.69  36.797  23.859
2190.19  36.797  23.889
2190.69  36.797  23.859
2191.19  36.925  23.859
2191.69  36.797  23.859
2192.19  36.861  23.889
2192.69  36.797  23.889
2193.19  36.861  23.859
2193.69  36.861  23.889
2194.19  36.797  23.859
2194.69  36.925  23.859
2195.19  36.797  23.889
2195.69  36.797  23.889
2196.19  36.733  23.920
2196.69  36.797  23.889
2197.19  36.861  23.859
2197.70  36.797  23.889
2198.20  36.861  23.889
2198.70  36.861  23.889
2199.20  36.925  23.889
2199.70  36.861  23.889
2200.20  36.861  23.889
2200.70  36.797  23.889
2201.20  36.797  23.889
2201.70  36.861  23.889
2202.20  36.861  23.889
2202.70  36.797  23.889
2203.20  36.797  23.828
2203.70  36.861  23.859
2204.20  36.861  23.859
2204.70  36.861  23.889
2205.20  36.861  23.889
2205.70  36.861  23.889
2206.20  36.797  23.889
2206.70  36.797  23.889
2207.20  36.797  23.889
2207.70  36.797  23.889
2208.20  36.797  23.920
2208.70  36.925  23.828
2209.20  36.797  23.859
2209.70  36.861  23.859
2210.20  36.861  23.889
2210.70  36.797  23.889
2211.20  36.861  23.889
2211.70  36.861  23.889
2212.20  36.797  23.889
2212.70  36.861  23.889
2213.20  36.733  23.889
2213.70  36.797  23.889
2214.20  36.925  23.859
2214.70  36.861  23.889
2215.20  36.861  23.889
2215.70  36.797  23.889
2216.20  36.861  23.859
2216.70  36.797  23.889
2217.20  36.861  23.889
2217.70  36.861  23.859
2218.20  36.797  23.889
2218.70  36.861  23.889
2219.20  36.797  23.889
2219.70  36.861  23.889
2220.20  36.797  23.889
2220.70  36.861  23.859
2221.20  36.797  23.889
2221.70  36.861  23.889
2222.20  36.861  23.859
2222.70  36.861  23.889
2223.20  36.733  23.889
2223.70  36.797  23.859
2224.20  36.861  23.889
2224.70  36.733  23.889
2225.20  36.797  23.859
2225.70  36.861  23.889
2226.20  36.861  23.889
2226.70  36.861  23.889
2227.20  36.797  23.859
2227.70  36.861  23.920
2228.20  36.861  23.859
2228.70  36.861  23.859
2229.20  36.797  23.859
2229.70  36.861  23.920
2230.20  36.861  23.859
2230.70  36.861  23.889
2231.20  36.861  23.889
2231.70  36.861  23.889
2232.20  36.861  23.889
2232.70  36.797  23.889
2233.20  36.925  23.859
2233.70  36.797  23.859
2234.20  36.861  23.859
2234.70  36.797  23.859
2235.20  36.861  23.889
2235.70  36.861  23.889
2236.20  36.861  23.859
2236.70  36.925  23.889
2237.20  36.861  23.889
2237.70  36.861  23.889
2238.20  36.861  23.951
2238.70  36.861  23.920
2239.20  36.861  23.859
2239.70  37.053  23.920
2240.20  36.797  23.889
2240.70  36.925  23.889
2241.20  36.861  23.889
2241.70  36.797  23.889
2242.20  36.925  23.859
2242.70  36.797  23.889
2243.20  36.797  23.889
2243.70  36.797  23.889
2244.20  36.733  23.920
2244.70  36.861  23.859
2245.20  36.861  23.920
2245.70  36.925  23.920
2246.20  36.925  23.859
2246.70  36.861  23.920
2247.20  36.861  23.889
2247.70  36.797  23.920
2248.20  36.861  23.889
2248.70  36.797  23.889
2249.20  36.861  23.859
2249.70  36.861  23.889
2250.20  36.797  23.889
2250.70  36.861  23.920
2251.20  36.861  23.889
2251.70  36.925  23.889
2252.20  36.925  23.889
2252.70  36.861  23.889
2253.20  36.861  23.828
2253.70  36.861  23.889
2254.20  36.861  23.859
2254.70  36.797  23.920
2255.20  36.925  23.889
2255.70  36.925  23.889
2256.20  36.797  23.859
2256.70  36.925  23.889
2257.20  36.861  23.889
2257.70  36.797  23.889
2258.20  36.925  23.889
2258.70  36.861  23.889
2259.20  36.861  23.859
2259.70  36.861  23.889
2260.20  36.861  23.859
2260.70  36.925  23.859
2261.20  36.861  23.889
2261.70  36.797  23.889
2262.20  36.861  23.889
2262.70  36.861  23.889
2263.20  36.925  23.920
2263.70  36.861  23.889
2264.20  36.861  23.889
2264.70  36.861  23.859
2265.20  36.925  23.889
2265.70  36.861  23.889
2266.20  36.925  23.859
2266.70  36.925  23.889
2267.20  36.861  23.859
2267.70  36.925  23.889
2268.20  36.925  23.920
2268.70  36.861  23.889
2269.20  36.797  23.889
2269.70  36.925  23.920
2270.20  36.925  23.889
2270.70  36.925  23.889
2271.20  36.989  23.889
2271.70  36.861  23.920
2272.20  36.925  23.889
2272.70  36.925  23.920
2273.20  36.797  23.889
2273.70  36.861  23.920
2274.20  36.925  23.982
2274.70  36.861  23.920
2275.20  36.925  23.920
2275.70  36.925  23.951
2276.20  36.861  23.920
2276.70  36.925  23.889
2277.20  36.861  23.982
2277.70  36.925  23.889
2278.20  36.989  23.889
2278.70  36.925  23.859
2279.20  36.925  23.920
2279.70  36.861  23.889
2280.20  36.861  23.920
2280.70  36.797  23.920
2281.20  36.925  23.889
2281.70  36.861  23.889
2282.20  36.861  23.889
2282.70  36.925  23.920
2283.20  36.733  23.889
2283.70  36.797  23.889
2284.20  36.861  23.889
2284.70  36.925  23.889
2285.20  36.861  23.889
2285.70  36.861  23.920
2286.20  36.925  23.920
2286.70  36.925  23.920
2287.20  36.925  23.889
2287.70  36.861  23.920
2288.20  36.925  23.889
2288.70  36.925  23.889
2289.20  36.797  23.889
2289.70  36.925  23.889
2290.20  36.861  23.889
2290.70  36.861  23.920
2291.20  36.925  23.828
2291.70  36.925  23.889
2292.20  36.861  23.889
2292.70  36.925  23.920
2293.20  36.925  23.920
2293.70  36.989  23.889
2294.20  36.861  23.920
2294.70  36.925  23.889
2295.20  36.925  23.920
2295.70  36.925  23.889
2296.20  36.797  23.889
2296.70  36.989  23.920
2297.20  36.989  23.889
2297.70  36.861  23.889
2298.20  36.925  23.889
2298.70  36.925  23.859
2299.20  36.925  23.920
2299.70  36.861  23.889
2300.20  36.925  23.889
2300.70  36.925  23.889
2301.20  36.925  23.889
2301.70  36.925  23.920
2302.20  36.925  23.889
2302.70  36.861  23.889
2303.20  36.925  23.920
2303.70  36.925  23.828
2304.20  36.733  23.859
2304.70  36.925  23.889
2305.20  36.861  23.889
2305.70  36.925  23.920
2306.20  36.925  23.889
2306.70  36.925  23.920
2307.20  36.861  23.889
2307.70  36.925  23.859
2308.20  36.925  23.889
2308.70  36.925  23.889
2309.20  36.925  23.889
2309.70  36.797  23.889
2310.20  36.925  23.920
2310.70  36.925  23.920
2311.20  36.925  23.889
2311.70  36.861  23.889
2312.20  36.989  23.889
2312.70  36.925  23.889
2313.20  36.925  23.951
2313.70  36.989  23.889
2314.20  36.925  23.889
2314.70  36.861  23.889
2315.20  36.797  23.920
2315.70  36.925  23.920
2316.20  36.925  23.920
2316.70  36.989  23.920
2317.20  36.925  23.889
2317.70  36.989  23.920
2318.20  36.925  23.859
2318.70  36.925  23.889
2319.20  36.925  23.920
2319.70  36.925  23.951
2320.20  36.925  23.889
2320.70  36.989  23.920
2321.20  36.925  23.889
2321.71  36.989  23.889
2322.21  36.925  23.889
2322.71  36.925  23.889
2323.21  36.925  23.889
2323.71  36.925  23.920
2324.21  36.989  23.920
2324.71  36.989  23.889
2325.21  36.925  23.889
2325.71  36.925  23.920
2326.21  36.925  23.920
2326.71  36.989  23.889
2327.21  36.925  23.951
2327.71  36.989  23.889
2328.21  36.925  23.889
2328.71  36.925  23.920
2329.21  36.925  23.889
2329.71  36.989  23.920
2330.21  36.861  23.920
2330.71  36.925  23.920
2331.21  36.861  23.889
2331.71  36.925  23.889
2332.21  36.989  23.889
2332.71  36.989  23.920
2333.21  36.861  23.920
2333.71  36.925  23.920
2334.21  36.925  23.889
2334.71  36.989  23.920
2335.21  36.989  23.920
2335.71  36.925  23.951
2336.21  36.989  23.920
2336.71  36.797  23.889
2337.21  36.989  23.920
2337.71  36.925  23.920
2338.21  36.861  23.889
2338.71  36.989  23.889
2339.21  36.989  23.920
2339.71  36.989  23.920
2340.21  36.925  23.859
2340.71  36.925  23.920
2341.21  36.925  23.889
2341.71  36.989  23.920
2342.21  36.925  23.920
2342.71  36.925  23.951
2343.21  37.053  23.920
2343.71  36.925  23.889
2344.21  36.925  23.889
2344.71  36.989  23.889
2345.21  36.925  23.889
2345.71  36.861  23.828
2346.21  36.925  23.889
2346.71  37.053  23.951
2347.21  36.925  23.889
2347.71  36.925  23.920
2348.21  36.925  23.889
2348.71  36.989  23.951
2349.21  36.989  23.859
2349.71  36.925  23.920
2350.21  36.989  23.920
2350.71  36.861  23.920
2351.21  36.989  23.920
2351.71  36.989  23.920
2352.21  37.053  23.920
2352.71  36.989  23.920
2353.21  36.925  23.920
2353.71  36.989  23.920
2354.21  36.925  23.889
2354.71  36.989  23.889
2355.21  36.989  23.920
2355.71  36.925  23.920
2356.21  36.989  23.920
2356.71  36.989  23.889
2357.21  36.989  23.920
2357.71  36.989  23.859
2358.21  36.925  23.920
2358.71  37.117  23.920
2359.21  36.925  23.920
2359.71  36.989  23.951
2360.21  36.989  23.920
2360.71  36.989  23.920
2361.21  36.925  23.951
2361.71  36.989  23.920
2362.21  36.989  23.889
2362.71  36.989  23.920
2363.21  36.989  23.920
2363.71  36.989  23.951
2364.21  36.989  23.920
2364.71  37.117  23.920
2365.21  36.989  23.920
2365.71  36.989  23.920
2366.21  36.925  23.920
2366.71  36.989  23.889
2367.21  36.861  23.951
2367.71  36.989  23.920
2368.21  36.925  23.889
2368.71  36.861  23.920
2369.21  36.989  23.951
2369.71  36.925  23.889
2370.21  36.989  23.920
2370.71  36.925  23.951
2371.21  36.989  23.920
2371.71  36.989  23.889
2372.21  36.989  23.889
2372.71  36.989  23.859
2373.21  36.925  23.920
2373.71  36.989  23.951
2374.21  36.989  23.920
2374.71  36.989  23.889
2375.21  36.989  23.889
2375.71  36.989  23.920
2376.21  36.989  23.920
2376.71  36.925  23.920
2377.21  36.989  23.889
2377.71  36.989  23.889
2378.21  36.925  23.920
2378.71  36.989  23.889
2379.21  36.925  23.889
2379.71  36.989  23.920
2380.21  36.989  23.920
2380.71  36.925  23.889
2381.21  36.989  23.920
2381.71  36.925  23.920
2382.21  36.925  23.920
2382.71  36.989  23.889
2383.21  36.989  23.920
2383.71  36.989  23.920
2384.21  36.989  23.889
2384.71  36.989  23.889
2385.21  37.117  23.920
2385.71  36.925  23.920
2386.21  36.989  23.920
2386.71  36.861  23.920
2387.21  36.989  23.920
2387.71  36.925  23.920
2388.21  36.925  23.920
2388.71  36.989  23.889
2389.21  36.989  23.982
2389.71  37.053  23.920
2390.21  36.989  23.920
2390.71  36.989  23.951
2391.21  37.053  24.013
2391.71  36.925  23.889
2392.21  36.925  23.951
2392.71  36.989  23.889
2393.21  36.989  23.920
2393.71  36.989  23.920
2394.21  36.989  23.951
2394.71  36.989  23.920
2395.21  36.989  23.889
2395.71  36.925  23.889
2396.21  36.989  23.920
2396.71  36.989  23.920
2397.21  36.989  23.920
2397.71  37.053  23.889
2398.21  36.989  23.951
2398.71  36.989  23.920
2399.21  37.053  23.920
2399.71  36.989  23.951
2400.21  36.989  23.951
2400.71  36.989  23.920
2401.21  37.053  23.920
2401.71  36.989  23.889
2402.21  36.989  23.951
2402.71  36.989  23.951
2403.21  37.053  23.920
2403.71  37.117  23.920
2404.21  36.989  23.951
2404.71  36.989  23.920
2405.21  36.989  23.889
2405.71  36.989  23.889
2406.21  36.861  23.889
2406.71  37.053  23.920
2407.21  37.053  23.889
2407.71  36.989  23.889
2408.21  37.117  23.889
2408.71  37.053  23.920
2409.21  36.989  23.889
2409.71  36.989  23.951
2410.21  36.989  23.920
2410.71  36.925  23.920
2411.21  36.989  23.920
2411.71  36.989  23.951
2412.21  36.925  23.920
2412.71  36.989  23.920
2413.21  36.989  23.951
2413.71  37.053  23.951
2414.21  36.989  23.951
2414.71  36.989  23.920
2415.21  37.117  23.920
2415.71  37.053  23.920
2416.21  36.989  23.920
2416.71  37.117  23.951
2417.21  37.053  23.920
2417.71  37.053  23.920
2418.21  37.117  23.920
2418.71  37.117  23.920
2419.21  36.989  23.859
2419.71  36.989  23.920
2420.21  37.053  23.859
2420.71  37.053  23.920
2421.21  36.989  23.920
2421.71  37.053  23.920
2422.21  36.989  23.951
2422.71  36.989  23.920
2423.21  36.989  23.920
2423.72  36.989  23.920
2424.22  36.989  23.920
2424.72  36.989  23.951
2425.22  36.989  23.951
2425.72  37.053  23.951
2426.22  36.989  23.920
2426.72  37.053  23.889
2427.22  36.989  23.889
2427.72  36.989  23.920
2428.22  37.053  23.920
2428.72  36.989  23.889
2429.22  36.989  23.951
2429.72  36.989  23.920
2430.22  36.925  23.920
2430.72  36.989  23.889
2431.22  37.053  23.889
2431.72  37.053  23.920
2432.22  37.053  23.982
2432.72  36.989  23.920
2433.22  37.053  23.920
2433.72  36.925  23.920
2434.22  37.053  23.920
2434.72  37.053  23.920
2435.22  37.053  23.889
2435.72  36.989  23.951
2436.22  36.989  23.920
2436.72  37.053  23.920
2437.22  37.053  23.920
2437.72  36.989  23.920
2438.22  36.989  23.920
2438.72  36.989  23.951
2439.22  37.053  23.889
2439.72  37.053  23.920
2440.22  36.989  23.920
2440.72  36.989  23.951
2441.22  37.053  23.951
2441.72  36.989  23.920
2442.22  36.989  23.920
2442.72  37.117  23.920
2443.22  37.053  23.951
2443.72  37.117  23.951
2444.22  36.989  23.951
2444.72  37.053  23.951
2445.22  36.989  23.920
2445.72  36.989  23.920
2446.22  36.989  23.982
2446.72  37.053  23.920
2447.22  36.989  23.920
2447.72  36.989  23.920
2448.22  36.989  23.920
2448.72  36.989  23.889
2449.22  37.053  23.951
2449.72  37.053  23.920
2450.22  36.989  23.920
2450.72  36.989  23.920
2451.22  36.989  23.920
2451.72  37.053  23.951
2452.22  36.989  23.920
2452.72  37.053  23.920
2453.22  37.181  23.920
2453.72  36.989  23.920
2454.22  37.053  23.951
2454.72  36.989  23.920
2455.22  37.053  23.920
2455.72  37.053  23.920
2456.22  37.117  23.951
2456.72  37.053  23.920
2457.22  37.053  23.920
2457.72  37.053  23.920
2458.22  37.053  23.951
2458.72  36.989  23.889
2459.22  37.053  23.859
2459.72  37.117  23.920
2460.22  36.989  23.889
2460.72  37.053  23.951
2461.22  37.053  23.951
2461.72  37.053  23.982
2462.22  36.989  23.982
2462.72  37.053  23.982
2463.22  37.053  23.951
2463.72  37.053  23.982
2464.22  36.925  23.951
2464.72  37.053  23.920
2465.22  36.989  23.920
2465.72  37.053  23.920
2466.22  37.053  23.920
2466.72  37.053  23.951
2467.22  37.053  23.920
2467.72  37.117  23.951
2468.22  37.053  23.951
2468.72  36.989  23.951
2469.22  37.053  23.951
2469.72  36.989  23.951
2470.22  37.053  23.951
2470.72  37.053  23.951
2471.22  37.053  23.951
2471.72  37.053  23.920
2472.22  37.053  23.920
2472.72  37.053  23.982
2473.22  37.053  23.920
2473.72  37.117  23.920
2474.22  37.053  23.889
2474.72  37.117  23.951
2475.22  37.053  23.951
2475.72  36.989  23.951
2476.22  37.053  23.889
2476.72  37.053  23.951
2477.22  37.053  23.920
2477.72  36.925  23.920
2478.22  37.053  23.951
2478.72  37.053  23.920
2479.22  37.245  23.920
2479.72  37.053  23.889
2480.22  37.053  23.951
2480.72  37.053  24.013
2481.22  37.117  23.920
2481.72  37.053  23.920
2482.22  37.053  23.920
2482.72  37.053  23.951
2483.22  37.053  23.951
2483.72  37.053  23.889
2484.22  36.989  23.920
2484.72  37.053  23.951
2485.22  37.053  23.951
2485.72  37.053  23.951
2486.22  37.053  23.920
2486.72  37.053  23.951
2487.22  37.053  23.920
2487.72  37.053  23.982
2488.22  37.053  23.951
2488.72  37.053  23.920
2489.22  37.053  23.951
2489.72  37.117  23.920
2490.22  37.053  23.982
2490.72  36.989  23.920
2491.22  36.989  23.951
2491.72  37.117  23.920
2492.22  37.117  23.982
2492.72  37.117  23.951
2493.22  37.053  23.920
2493.72  36.989  23.951
2494.22  36.989  23.951
2494.72  37.053  23.951
2495.22  37.053  23.951
2495.72  37.053  23.951
2496.22  37.053  23.889
2496.72  37.117  23.951
2497.22  37.053  23.951
2497.72  37.053  23.951
2498.22  37.117  23.951
2498.72  37.053  23.982
2499.22  37.053  23.951
2499.72  37.053  23.951
2500.22  37.053  23.951
2500.72  37.117  23.951
2501.22  36.989  23.920
2501.72  37.117  23.889
