   2.00  23.513  23.119
   2.50  23.539  23.119
   3.00  23.539  23.088
   3.50  23.513  23.119
   4.00  23.539  23.119
   4.50  23.513  23.119
   5.00  23.539  23.119
   5.50  23.513  23.119
   6.00  23.539  23.150
   6.50  23.513  23.119
   7.00  23.487  23.119
   7.50  23.513  23.150
   8.00  23.539  23.088
   8.50  23.539  23.150
   9.00  23.513  23.119
   9.50  23.513  23.150
  10.00  23.513  23.119
  10.50  23.539  23.119
  11.00  23.539  23.119
  11.50  23.513  23.181
  12.00  23.539  23.150
  12.50  23.513  23.119
  13.00  23.539  23.119
  13.50  23.513  23.119
  14.00  23.539  23.150
  14.50  23.539  23.119
  15.00  23.513  23.150
  15.50  23.513  23.150
  16.00  23.539  23.150
  16.50  23.539  23.119
  17.00  23.539  23.150
  17.50  23.539  23.150
  18.00  23.565  23.150
  18.50  23.591  23.150
  19.00  23.591  23.150
  19.50  23.591  23.181
  20.00  23.617  23.181
  20.50  23.591  23.181
  21.00  23.565  23.119
  21.50  23.565  23.150
  22.00  23.617  23.150
  22.50  23.591  23.150
  23.00  23.617  23.150
  23.50  23.591  23.150
  24.00  23.617  23.181
  24.50  23.617  23.181
  25.00  23.617  23.150
  25.50  23.643  23.181
  26.00  23.643  23.119
  26.50  23.643  23.181
  27.00  23.696  23.181
  27.50  23.670  23.181
  28.00  23.722  23.181
  28.50  23.722  23.181
  29.00  23.722  23.212
  29.50  23.748  23.181
  30.00  23.748  23.181
  30.50  23.774  23.150
  31.00  23.748  23.181
  31.50  23.748  23.212
  32.00  23.774  23.181
  32.50  23.774  23.181
  33.00  23.800  23.212
  33.50  23.800  23.181
  34.00  23.774  23.181
  34.50  23.800  23.181
  35.00  23.800  23.273
  35.50  23.826  23.212
  36.00  23.826  23.212
  36.50  23.774  23.212
  37.00  23.878  23.181
  37.50  23.852  23.181
  38.00  23.826  23.181
  38.50  23.878  23.212
  39.00  23.852  23.181
  39.50  23.878  23.212
  40.00  23.878  23.212
  40.50  23.905  23.212
  41.00  23.905  23.242
  41.50  23.905  23.242
  42.00  23.931  23.273
  42.50  23.931  23.212
  43.00  23.931  23.242
  43.50  23.931  23.242
  44.00  23.957  23.212
  44.50  23.983  23.242
  45.00  23.957  23.212
  45.50  23.957  23.242
  46.00  23.957  23.242
  46.50  24.009  23.212
  47.00  23.957  23.212
  47.51  23.983  23.242
  48.01  24.035  23.242
  48.51  23.983  23.212
  49.01  24.009  23.181
  49.51  24.009  23.242
  50.01  24.009  23.242
  50.51  24.035  23.273
  51.01  24.035  23.242
  51.51  24.061  23.242
  52.01  24.035  23.273
  52.51  24.061  23.242
  53.01  24.061  23.242
  53.51  24.087  23.242
  54.01  24.061  23.242
  54.51  24.061  23.242
  55.01  24.061  23.273
  55.51  24.087  23.273
  56.01  24.087  23.242
  56.51  24.113  23.212
  57.01  24.087  23.212
  57.51  24.061  23.242
  58.01  24.087  23.212
  58.51  24.140  23.242
  59.01  24.113  23.242
  59.51  24.113  23.212
  60.01  24.140  23.273
  60.51  24.166  23.242
  61.01  24.140  23.212
  61.51  24.087  23.242
  62.01  24.113  23.304
  62.51  24.166  23.242
  63.01  24.166  23.242
  63.51  24.113  23.242
  64.01  24.113  23.212
  64.51  24.140  23.242
  65.01  24.192  23.273
  65.51  24.140  23.304
  66.01  24.166  23.242
  66.51  24.192  23.242
  67.01  24.192  23.273
  67.51  24.192  23.273
  68.01  24.192  23.242
  68.51  24.166  23.242
  69.01  24.218  23.242
  69.51  24.218  23.273
  70.01  24.218  23.273
  70.51  24.244  23.304
  71.01  24.244  23.273
  71.51  24.244  23.242
  72.01  24.270  23.242
  72.51  24.270  23.242
  73.01  24.244  23.273
  73.51  24.296  23.273
  74.01  24.270  23.273
  74.51  24.322  23.273
  75.01  24.296  23.242
  75.51  24.296  23.304
  76.01  24.296  23.304
  76.51  24.296  23.273
  77.01  24.322  23.304
  77.51  24.270  23.242
  78.01  24.322  23.273
  78.51  24.322  23.273
  79.01  24.375  23.304
  79.51  24.296  23.273
  80.01  24.348  23.304
  80.51  24.348  23.242
  81.01  24.348  23.273
  81.51  24.348  23.273
  82.01  24.348  23.273
  82.51  24.375  23.273
  83.01  24.375  23.335
  83.51  24.348  23.273
  84.01  24.375  23.273
  84.51  24.375  23.304
  85.01  24.375  23.273
  85.51  24.375  23.335
  86.01  24.375  23.304
  86.51  24.401  23.304
  87.01  24.427  23.273
  87.51  24.401  23.304
  88.01  24.401  23.304
  88.51  24.453  23.304
  89.01  24.427  23.273
  89.51  24.427  23.304
  90.01  24.427  23.304
  90.51  24.427  23.273
  91.01  24.453  23.273
  91.51  24.427  23.273
  92.01  24.479  23.335
  92.51  24.453  23.304
  93.01  24.453  23.304
  93.51  24.479  23.273
  94.01  24.479  23.304
  94.51  24.453  23.335
  95.01  24.479  23.304
  95.51  24.505  23.304
  96.01  24.453  23.304
  96.51  24.479  23.335
  97.01  24.505  23.242
  97.51  24.453  23.304
  98.01  24.505  23.304
  98.51  24.531  23.304
  99.01  24.505  23.304
  99.51  24.505  23.335
 100.01  24.505  23.335
 100.51  24.531  23.304
 101.01  24.531  23.273
 101.51  24.479  23.242
 102.01  24.531  23.304
 102.51  24.557  23.304
 103.01  24.531  23.335
 103.51  24.557  23.304
 104.01  24.531  23.304
 104.51  24.583  23.304
 105.01  24.557  23.304
 105.51  24.583  23.335
 106.01  24.583  23.335
 106.51  24.610  23.335
 107.01  24.583  23.304
 107.51  24.583  23.242
 108.01  24.557  23.304
 108.51  24.583  23.304
 109.01  24.583  23.304
 109.51  24.610  23.335
 110.01  24.583  23.304
 110.51  24.636  23.273
 111.01  24.583  23.304
 111.51  24.610  23.304
 112.01  24.610  23.304
 112.51  24.610  23.335
 113.01  24.662  23.304
 113.51  24.662  23.335
 114.01  24.662  23.366
 114.51  24.636  23.273
 115.01  24.662  23.304
 115.51  24.636  23.335
 116.01  24.662  23.335
 116.51  24.662  23.335
 117.01  24.688  23.304
 117.51  24.662  23.304
 118.01  24.636  23.335
 118.51  24.688  23.304
 119.01  24.688  23.335
 119.51  24.662  23.304
 120.01  24.688  23.304
 120.51  24.688  23.335
 121.01  24.714  23.304
 121.51  24.688  23.304
 122.01  24.688  23.335
 122.51  24.714  23.335
 123.01  24.714  23.335
 123.51  24.714  23.304
 124.01  24.740  23.366
 124.51  24.714  23.273
 125.01  24.714  23.304
 125.51  24.714  23.304
 126.01  24.688  23.304
 126.51  24.688  23.335
 127.01  24.819  23.335
 127.51  24.740  23.335
 128.01  24.714  23.304
 128.51  24.740  23.366
 129.01  24.740  23.335
 129.51  24.766  23.304
 130.01  24.766  23.366
 130.51  24.766  23.335
 131.01  24.766  23.304
 131.51  24.740  23.304
 132.01  24.740  23.335
 132.51  24.766  23.335
 133.01  24.766  23.335
 133.51  24.766  23.335
 134.01  24.792  23.335
 134.51  24.740  23.366
 135.01  24.792  23.304
 135.51  24.766  23.304
 136.01  24.792  23.335
 136.51  24.792  23.335
 137.01  24.819  23.335
 137.51  24.792  23.335
 138.01  24.792  23.335
 138.51  24.819  23.335
 139.01  24.792  23.366
 139.51  24.819  23.335
 140.01  24.819  23.304
 140.51  24.819  23.304
 141.01  24.819  23.304
 141.51  24.792  23.335
 142.01  24.819  23.335
 142.51  24.819  23.335
 143.01  24.871  23.335
 143.51  24.871  23.335
 144.01  24.871  23.304
 144.51  24.871  23.335
 145.01  24.871  23.304
 145.51  24.819  23.304
 146.01  24.845  23.366
 146.51  24.897  23.335
 147.01  24.871  23.366
 147.51  24.871  23.335
 148.01  24.871  23.304
 148.51  24.871  23.304
 149.01  24.923  23.335
 149.51  24.897  23.335
 150.01  24.897  23.335
 150.51  24.923  23.304
 151.01  24.923  23.366
 151.51  24.897  23.335
 152.01  24.897  23.304
 152.51  24.923  23.335
 153.01  24.923  23.335
 153.51  24.897  23.335
 154.01  24.923  23.335
 154.51  24.923  23.335
 155.01  24.949  23.335
 155.51  24.949  23.335
 156.01  24.975  23.335
 156.51  24.923  23.335
 157.01  24.949  23.304
 157.51  24.975  23.335
 158.01  24.949  23.335
 158.51  24.975  23.335
 159.01  24.949  23.366
 159.51  24.975  23.366
 160.01  25.005  23.335
 160.51  24.975  23.335
 161.01  25.005  23.366
 161.51  24.975  23.335
 162.01  24.975  23.335
 162.51  25.005  23.366
 163.01  25.005  23.335
 163.51  25.005  23.335
 164.01  25.114  23.335
 164.51  25.005  23.335
 165.01  25.114  23.335
 165.51  25.114  23.366
 166.01  25.222  23.366
 166.51  25.114  23.335
 167.01  25.114  23.335
 167.51  25.114  23.335
 168.01  25.114  23.335
 168.51  25.114  23.335
 169.01  25.114  23.335
 169.51  25.330  23.335
 170.01  25.438  23.366
 170.51  25.222  23.366
 171.01  25.222  23.396
 171.52  25.330  23.304
 172.02  25.330  23.335
 172.52  25.330  23.366
 173.02  25.330  23.366
 173.52  25.330  23.335
 174.02  25.330  23.396
 174.52  25.330  23.335
 175.02  25.438  23.366
 175.52  25.330  23.335
 176.02  25.438  23.366
 176.52  25.438  23.366
 177.02  25.438  23.304
 177.52  25.438  23.366
 178.02  25.438  23.366
 178.52  25.438  23.366
 179.02  25.438  23.366
 179.52  25.438  23.366
 180.02  25.655  23.366
 180.52  25.547  23.366
 181.02  25.655  23.335
 181.52  25.547  23.335
 182.02  25.547  23.335
 182.52  25.547  23.335
 183.02  25.655  23.366
 183.52  25.547  23.335
 184.02  25.655  23.366
 184.52  25.655  23.335
 185.02  25.655  23.396
 185.52  25.655  23.335
 186.02  25.763  23.366
 186.52  25.763  23.335
 187.02  25.655  23.396
 187.52  25.763  23.335
 188.02  25.871  23.366
 188.52  25.763  23.335
 189.02  25.763  23.396
 189.52  25.763  23.335
 190.02  25.871  23.335
 190.52  25.763  23.304
 191.02  25.871  23.366
 191.52  25.763  23.366
 192.02  25.871  23.366
 192.52  25.980  23.304
 193.02  25.871  23.366
 193.52  25.871  23.335
 194.02  25.980  23.335
 194.52  25.980  23.304
 195.02  25.871  23.396
 195.52  25.980  23.396
 196.02  25.980  23.335
 196.52  25.980  23.366
 197.02  25.871  23.335
 197.52  25.871  23.335
 198.02  26.088  23.335
 198.52  26.088  23.366
 199.02  25.980  23.366
 199.52  25.980  23.366
 200.02  26.088  23.366
 200.52  25.980  23.366
 201.02  26.088  23.335
 201.52  26.196  23.396
 202.02  25.980  23.366
 202.52  26.088  23.335
 203.02  26.196  23.366
 203.52  26.196  23.335
 204.02  26.304  23.366
 204.52  26.196  23.396
 205.02  26.304  23.427
 205.52  26.304  23.366
 206.02  26.521  23.366
 206.52  26.196  23.366
 207.02  26.196  23.335
 207.52  26.196  23.366
 208.02  26.413  23.366
 208.52  26.304  23.366
 209.02  26.304  23.366
 209.52  26.413  23.304
 210.02  26.304  23.335
 210.52  26.304  23.366
 211.02  26.304  23.366
 211.52  26.304  23.335
 212.02  26.413  23.396
 212.52  26.413  23.366
 213.02  26.413  23.366
 213.52  26.521  23.366
 214.02  26.413  23.366
 214.52  26.304  23.335
 215.02  26.413  23.366
 215.52  26.737  23.396
 216.02  26.413  23.396
 216.52  26.521  23.396
 217.02  26.521  23.396
 217.52  26.629  23.366
 218.02  26.304  23.366
 218.52  26.521  23.366
 219.02  26.629  23.366
 219.52  26.629  23.366
 220.02  26.629  23.366
 220.52  26.629  23.366
 221.02  26.521  23.366
 221.52  26.629  23.366
 222.02  26.737  23.366
 222.52  26.629  23.396
 223.02  26.521  23.366
 223.52  26.629  23.396
 224.02  26.629  23.335
 224.52  26.737  23.366
 225.02  26.737  23.366
 225.52  26.737  23.396
 226.02  26.629  23.396
 226.52  26.629  23.366
 227.02  26.737  23.366
 227.52  26.846  23.366
 228.02  26.629  23.366
 228.52  26.737  23.396
 229.02  26.737  23.396
 229.52  26.846  23.396
 230.02  26.737  23.396
 230.52  26.629  23.366
 231.02  26.846  23.396
 231.52  26.846  23.396
 232.02  26.846  23.427
 232.52  26.846  23.366
 233.02  26.954  23.366
 233.52  26.846  23.396
 234.02  26.954  23.396
 234.52  26.954  23.366
 235.02  26.954  23.366
 235.52  27.062  23.396
 236.02  26.954  23.335
 236.52  27.062  23.366
 237.02  27.062  23.396
 237.52  27.170  23.366
 238.02  26.846  23.396
 238.52  26.737  23.396
 239.02  27.170  23.396
 239.52  27.062  23.396
 240.02  27.170  23.366
 240.52  27.062  23.396
 241.02  27.279  23.366
 241.52  27.170  23.396
 242.02  27.062  23.366
 242.52  27.170  23.396
 243.02  27.170  23.396
 243.52  27.279  23.366
 244.02  27.170  23.427
 244.52  27.279  23.396
 245.02  27.279  23.396
 245.52  27.170  23.396
 246.02  27.170  23.396
 246.52  27.170  23.335
 247.02  27.279  23.366
 247.52  27.387  23.396
 248.02  27.279  23.396
 248.52  27.387  23.396
 249.02  27.279  23.366
 249.52  27.279  23.427
 250.02  27.603  23.366
 250.52  27.279  23.396
 251.02  27.495  23.366
 251.52  27.279  23.396
 252.02  27.387  23.396
 252.52  27.387  23.366
 253.02  27.387  23.366
 253.52  27.279  23.396
 254.02  27.387  23.396
 254.52  27.387  23.366
 255.02  27.279  23.396
 255.52  27.279  23.366
 256.02  27.387  23.366
 256.52  27.495  23.366
 257.02  27.387  23.396
 257.52  27.495  23.366
 258.02  27.387  23.366
 258.52  27.495  23.366
 259.02  27.495  23.396
 259.52  27.495  23.366
 260.02  27.603  23.396
 260.52  27.603  23.396
 261.02  27.495  23.396
 261.52  27.495  23.396
 262.02  27.495  23.396
 262.52  27.603  23.366
 263.02  27.495  23.396
 263.52  27.495  23.366
 264.02  27.603  23.396
 264.52  27.603  23.366
 265.02  27.603  23.427
 265.52  27.495  23.396
 266.02  27.603  23.366
 266.52  27.603  23.396
 267.02  27.495  23.396
 267.52  27.603  23.366
 268.02  27.603  23.366
 268.52  27.712  23.396
 269.02  27.712  23.396
 269.52  27.712  23.366
 270.02  27.712  23.396
 270.52  27.712  23.396
 271.02  27.712  23.427
 271.52  27.603  23.396
 272.02  27.820  23.396
 272.52  27.712  23.427
 273.02  27.712  23.396
 273.52  27.603  23.396
 274.02  27.712  23.396
 274.52  27.820  23.396
 275.02  27.928  23.396
 275.52  27.928  23.366
 276.02  27.712  23.396
 276.52  27.928  23.366
 277.02  27.928  23.396
 277.52  27.820  23.396
 278.02  27.928  23.396
 278.52  28.036  23.396
 279.02  27.928  23.396
 279.52  27.928  23.396
 280.02  27.928  23.396
 280.52  27.820  23.427
 281.02  27.928  23.366
 281.52  28.036  23.396
 282.02  27.928  23.396
 282.52  27.928  23.396
 283.02  27.928  23.396
 283.52  28.036  23.366
 284.02  28.036  23.427
 284.52  28.036  23.366
 285.03  28.145  23.366
 285.53  28.036  23.366
 286.03  28.145  23.427
 286.53  28.145  23.427
 287.03  28.036  23.427
 287.53  28.145  23.396
 288.03  28.036  23.396
 288.53  28.145  23.427
 289.03  28.145  23.396
 289.53  28.036  23.396
 290.03  28.145  23.396
 290.53  28.145  23.427
 291.03  28.361  23.396
 291.53  28.361  23.366
 292.03  28.145  23.396
 292.53  28.253  23.396
 293.03  28.253  23.396
 293.53  28.145  23.396
 294.03  28.253  23.396
 294.53  28.361  23.427
 295.03  28.145  23.396
 295.53  28.253  23.396
 296.03  28.036  23.396
 296.53  28.253  23.396
 297.03  28.253  23.427
 297.53  28.361  23.396
 298.03  28.361  23.366
 298.53  28.361  23.427
 299.03  28.361  23.396
 299.53  28.253  23.396
 300.03  28.361  23.396
 300.53  28.253  23.396
 301.03  28.253  23.396
 301.53  28.361  23.396
 302.03  28.253  23.427
 302.53  28.578  23.396
 303.03  28.361  23.396
 303.53  28.361  23.396
 304.03  28.578  23.396
 304.53  28.361  23.396
 305.03  28.361  23.427
 305.53  28.469  23.396
 306.03  28.469  23.427
 306.53  28.469  23.396
 307.03  28.578  23.489
 307.53  28.469  23.366
 308.03  28.469  23.427
 308.53  28.469  23.427
 309.03  28.469  23.366
 309.53  28.469  23.427
 310.03  28.578  23.396
 310.53  28.469  23.396
 311.03  28.469  23.396
 311.53  28.578  23.396
 312.03  28.578  23.396
 312.53  28.578  23.427
 313.03  28.578  23.396
 313.53  28.469  23.396
 314.03  28.578  23.427
 314.53  28.578  23.396
 315.03  28.686  23.396
 315.53  28.686  23.366
 316.03  28.578  23.396
 316.53  28.578  23.396
 317.03  28.578  23.366
 317.53  28.686  23.396
 318.03  28.686  23.396
 318.53  28.578  23.396
 319.03  28.469  23.396
 319.53  28.578  23.427
 320.03  28.794  23.396
 320.53  28.686  23.396
 321.03  28.578  23.366
 321.53  28.794  23.427
 322.03  28.686  23.396
 322.53  28.686  23.396
 323.03  28.794  23.427
 323.53  28.794  23.427
 324.03  28.794  23.427
 324.53  28.686  23.427
 325.03  28.794  23.427
 325.53  28.794  23.427
 326.03  28.794  23.427
 326.53  28.902  23.366
 327.03  28.794  23.396
 327.53  28.794  23.427
 328.03  28.902  23.427
 328.53  28.902  23.427
 329.03  28.794  23.396
 329.53  28.902  23.427
 330.03  28.902  23.458
 330.53  29.011  23.396
 331.03  28.794  23.396
 331.53  28.902  23.427
 332.03  28.902  23.396
 332.53  29.011  23.427
 333.03  28.902  23.489
 333.53  28.902  23.427
 334.03  29.011  23.427
 334.53  29.011  23.427
 335.03  29.011  23.427
 335.53  29.011  23.427
 336.03  29.011  23.427
 336.53  29.119  23.396
 337.03  29.011  23.427
 337.53  29.011  23.427
 338.03  29.119  23.396
 338.53  29.119  23.366
 339.03  29.119  23.427
 339.53  29.119  23.427
 340.03  29.227  23.396
 340.53  29.119  23.427
 341.03  29.119  23.396
 341.53  28.902  23.396
 342.03  29.119  23.427
 342.53  29.011  23.427
 343.03  29.119  23.427
 343.53  29.119  23.396
 344.03  29.119  23.427
 344.53  29.335  23.427
 345.03  29.119  23.396
 345.53  29.119  23.366
 346.03  29.227  23.427
 346.53  29.227  23.427
 347.03  29.119  23.396
 347.53  29.119  23.396
 348.03  29.227  23.366
 348.53  29.227  23.427
 349.03  29.227  23.427
 349.53  29.227  23.396
 350.03  29.227  23.427
 350.53  29.227  23.427
 351.03  29.335  23.427
 351.53  29.335  23.427
 352.03  29.227  23.489
 352.53  29.227  23.396
 353.03  29.335  23.396
 353.53  29.119  23.396
 354.03  29.335  23.427
 354.53  29.335  23.427
 355.03  29.444  23.427
 355.53  29.119  23.427
 356.03  29.444  23.396
 356.53  29.335  23.458
 357.03  29.335  23.396
 357.53  29.444  23.427
 358.03  29.444  23.427
 358.53  29.444  23.427
 359.03  29.335  23.458
 359.53  29.335  23.427
 360.03  29.552  23.427
 360.53  29.552  23.396
 361.03  29.444  23.396
 361.53  29.444  23.427
 362.03  29.552  23.396
 362.53  29.444  23.427
 363.03  29.444  23.427
 363.53  29.444  23.427
 364.03  29.335  23.489
 364.53  29.444  23.427
 365.03  29.552  23.427
 365.53  29.552  23.427
 366.03  29.660  23.427
 366.53  29.552  23.427
 367.03  29.552  23.427
 367.53  29.552  23.396
 368.03  29.552  23.427
 368.53  29.552  23.427
 369.03  29.552  23.427
 369.53  29.660  23.396
 370.03  29.552  23.489
 370.53  29.660  23.427
 371.03  29.552  23.427
 371.53  29.552  23.427
 372.03  29.552  23.427
 372.53  29.552  23.427
 373.03  29.660  23.396
 373.53  29.660  23.427
 374.03  29.660  23.427
 374.53  29.660  23.458
 375.03  29.660  23.427
 375.53  29.768  23.458
 376.03  29.660  23.427
 376.53  29.660  23.458
 377.03  29.660  23.427
 377.53  29.768  23.396
 378.03  29.768  23.366
 378.53  29.660  23.427
 379.03  29.768  23.427
 379.53  29.768  23.427
 380.03  29.768  23.427
 380.53  29.768  23.427
 381.03  29.768  23.366
 381.53  29.768  23.427
 382.03  29.768  23.427
 382.53  29.768  23.427
 383.03  29.768  23.458
 383.53  29.660  23.396
 384.03  29.877  23.427
 384.53  29.768  23.427
 385.03  29.877  23.427
 385.53  29.877  23.458
 386.03  29.768  23.427
 386.53  29.877  23.427
 387.04  29.877  23.427
 387.54  29.768  23.427
 388.04  29.877  23.427
 388.54  30.101  23.427
 389.04  29.985  23.427
 389.54  29.877  23.427
 390.04  29.985  23.427
 390.54  29.985  23.489
 391.04  29.985  23.427
 391.54  29.877  23.427
 392.04  29.985  23.427
 392.54  30.101  23.396
 393.04  29.985  23.427
 393.54  29.877  23.427
 394.04  29.985  23.458
 394.54  29.985  23.427
 395.04  30.101  23.427
 395.54  29.985  23.427
 396.04  29.985  23.427
 396.54  29.985  23.427
 397.04  30.101  23.458
 397.54  30.101  23.396
 398.04  29.985  23.458
 398.54  29.985  23.427
 399.04  30.101  23.427
 399.54  30.334  23.489
 400.04  30.101  23.458
 400.54  29.985  23.458
 401.04  30.101  23.427
 401.54  30.101  23.489
 402.04  30.101  23.427
 402.54  29.985  23.427
 403.04  29.985  23.427
 403.54  30.217  23.489
 404.04  30.101  23.458
 404.54  30.217  23.396
 405.04  30.101  23.427
 405.54  30.101  23.458
 406.04  30.101  23.458
 406.54  30.101  23.396
 407.04  30.217  23.489
 407.54  30.217  23.427
 408.04  30.217  23.458
 408.54  30.334  23.427
 409.04  30.217  23.458
 409.54  30.101  23.458
 410.04  30.217  23.427
 410.54  30.217  23.458
 411.04  30.217  23.427
 411.54  30.217  23.458
 412.04  30.334  23.396
 412.54  30.101  23.458
 413.04  30.217  23.458
 413.54  30.217  23.427
 414.04  30.217  23.396
 414.54  30.451  23.396
 415.04  30.217  23.427
 415.54  30.334  23.427
 416.04  30.334  23.458
 416.54  30.451  23.427
 417.04  30.334  23.427
 417.54  30.334  23.458
 418.04  30.334  23.427
 418.54  30.217  23.427
 419.04  30.451  23.427
 419.54  30.334  23.458
 420.04  30.334  23.396
 420.54  30.334  23.427
 421.04  30.451  23.458
 421.54  30.451  23.427
 422.04  30.451  23.458
 422.54  30.451  23.458
 423.04  30.451  23.427
 423.54  30.451  23.458
 424.04  30.334  23.427
 424.54  30.334  23.458
 425.04  30.451  23.396
 425.54  30.568  23.458
 426.04  30.334  23.458
 426.54  30.451  23.458
 427.04  30.451  23.396
 427.54  30.568  23.458
 428.04  30.451  23.489
 428.54  30.685  23.458
 429.04  30.685  23.458
 429.54  30.451  23.458
 430.04  30.568  23.427
 430.54  30.451  23.427
 431.04  30.568  23.458
 431.54  30.451  23.427
 432.04  30.568  23.458
 432.54  30.568  23.396
 433.04  30.685  23.427
 433.54  30.568  23.427
 434.04  30.685  23.458
 434.54  30.685  23.427
 435.04  30.685  23.427
 435.54  30.568  23.458
 436.04  30.685  23.427
 436.54  30.568  23.458
 437.04  30.568  23.458
 437.54  30.568  23.427
 438.04  30.685  23.458
 438.54  30.685  23.458
 439.04  30.802  23.427
 439.54  30.802  23.427
 440.04  30.802  23.458
 440.54  30.685  23.427
 441.04  30.685  23.396
 441.54  30.802  23.427
 442.04  30.802  23.458
 442.54  30.685  23.427
 443.04  30.685  23.458
 443.54  30.802  23.489
 444.04  30.802  23.489
 444.54  30.802  23.396
 445.04  30.802  23.458
 445.54  30.919  23.458
 446.04  30.685  23.427
 446.54  30.685  23.489
 447.04  30.802  23.489
 447.54  30.919  23.427
 448.04  30.802  23.427
 448.54  30.802  23.427
 449.04  30.802  23.427
 449.54  31.036  23.458
 450.04  30.802  23.458
 450.54  30.802  23.458
 451.04  30.919  23.458
 451.54  30.802  23.458
 452.04  30.802  23.458
 452.54  30.919  23.427
 453.04  30.919  23.458
 453.54  30.802  23.427
 454.04  30.802  23.458
 454.54  30.919  23.458
 455.04  30.802  23.396
 455.54  30.802  23.458
 456.04  30.919  23.427
 456.54  30.919  23.458
 457.04  30.919  23.427
 457.54  31.036  23.489
 458.04  31.036  23.520
 458.54  31.152  23.427
 459.04  30.802  23.396
 459.54  31.036  23.458
 460.04  31.036  23.458
 460.54  30.919  23.458
 461.04  31.036  23.427
 461.54  30.919  23.458
 462.04  31.036  23.427
 462.54  31.036  23.458
 463.04  31.036  23.458
 463.54  31.036  23.427
 464.04  31.036  23.458
 464.54  30.802  23.458
 465.04  31.036  23.458
 465.54  31.152  23.427
 466.04  31.152  23.458
 466.54  31.152  23.458
 467.04  31.269  23.458
 467.54  31.036  23.489
 468.04  31.152  23.458
 468.54  31.152  23.396
 469.04  31.036  23.458
 469.54  31.152  23.458
 470.04  31.152  23.458
 470.54  31.152  23.458
 471.04  31.152  23.458
 471.54  31.152  23.427
 472.04  31.036  23.458
 472.54  31.152  23.427
 473.04  31.152  23.458
 473.54  31.152  23.427
 474.04  31.269  23.458
 474.54  31.269  23.427
 475.04  31.386  23.427
 475.54  31.386  23.427
 476.04  31.152  23.458
 476.54  31.269  23.458
 477.04  31.386  23.427
 477.54  31.269  23.458
 478.04  31.269  23.427
 478.54  31.269  23.489
 479.04  31.269  23.520
 479.54  31.269  23.427
 480.04  31.269  23.458
 480.54  31.269  23.427
 481.04  31.269  23.458
 481.54  31.503  23.458
 482.04  31.269  23.458
 482.54  31.386  23.427
 483.04  31.269  23.458
 483.54  31.269  23.458
 484.04  31.386  23.489
 484.54  31.386  23.458
 485.04  31.269  23.458
 485.54  31.386  23.458
 486.04  31.386  23.458
 486.54  31.503  23.489
 487.04  31.386  23.489
 487.54  31.269  23.458
 488.04  31.620  23.489
 488.54  31.269  23.520
 489.04  31.386  23.489
 489.54  31.503  23.489
 490.04  31.386  23.458
 490.54  31.503  23.458
 491.04  31.503  23.458
 491.54  31.386  23.458
 492.04  31.503  23.458
 492.54  31.503  23.427
 493.04  31.503  23.458
 493.54  31.620  23.427
 494.04  31.503  23.458
 494.54  31.386  23.427
 495.04  31.503  23.427
 495.54  31.503  23.427
 496.04  31.503  23.458
 496.54  31.503  23.458
 497.04  31.620  23.458
 497.54  31.386  23.458
 498.04  31.620  23.458
 498.54  31.620  23.458
 499.04  31.503  23.427
 499.54  31.503  23.458
 500.04  31.503  23.489
 500.55  31.503  23.427
 501.05  31.386  23.458
 501.55  31.503  23.458
 502.05  31.503  23.458
 502.55  31.620  23.458
 503.05  31.620  23.458
 503.55  31.503  23.427
 504.05  31.620  23.489
 504.55  31.620  23.489
 505.05  31.737  23.489
 505.55  31.620  23.489
 506.05  31.503  23.489
 506.55  31.620  23.458
 507.05  31.737  23.458
 507.55  31.737  23.458
 508.05  31.737  23.458
 508.55  31.620  23.458
 509.05  31.620  23.458
 509.55  31.737  23.489
 510.05  31.620  23.520
 510.55  31.737  23.458
 511.05  31.620  23.458
 511.55  31.737  23.427
 512.05  31.620  23.489
 512.55  31.737  23.458
 513.05  31.737  23.458
 513.55  31.737  23.458
 514.05  31.737  23.458
 514.55  31.620  23.458
 515.05  31.620  23.489
 515.55  31.737  23.458
 516.05  31.854  23.427
 516.55  31.737  23.458
 517.05  31.737  23.458
 517.55  31.854  23.458
 518.05  31.737  23.458
 518.55  31.737  23.489
 519.05  31.737  23.427
 519.55  31.737  23.427
 520.05  31.737  23.489
 520.55  31.854  23.458
 521.05  31.854  23.520
 521.55  31.971  23.458
 522.05  31.854  23.489
 522.55  32.087  23.520
 523.05  31.854  23.458
 523.55  31.971  23.489
 524.05  31.971  23.458
 524.55  31.971  23.427
 525.05  31.854  23.458
 525.55  32.087  23.489
 526.05  31.971  23.489
 526.55  31.854  23.458
 527.05  31.854  23.458
 527.55  31.854  23.458
 528.05  31.971  23.458
 528.55  31.971  23.458
 529.05  31.971  23.458
 529.55  31.971  23.489
 530.05  31.854  23.458
 530.55  31.971  23.489
 531.05  31.971  23.489
 531.55  31.971  23.489
 532.05  32.087  23.458
 532.55  31.971  23.489
 533.05  32.087  23.489
 533.55  32.087  23.489
 534.05  32.087  23.458
 534.55  32.087  23.458
 535.05  32.087  23.458
 535.55  32.204  23.489
 536.05  31.971  23.489
 536.55  32.087  23.489
 537.05  32.087  23.489
 537.55  32.087  23.489
 538.05  31.854  23.458
 538.55  32.087  23.458
 539.05  32.204  23.458
 539.55  31.971  23.458
 540.05  32.087  23.458
 540.55  32.204  23.458
 541.05  31.971  23.489
 541.55  32.087  23.458
 542.05  32.087  23.458
 542.55  32.087  23.489
 543.05  32.204  23.489
 543.55  32.087  23.520
 544.05  32.087  23.489
 544.55  32.204  23.427
 545.05  32.087  23.458
 545.55  32.204  23.458
 546.05  32.204  23.489
 546.55  32.204  23.489
 547.05  32.204  23.489
 547.55  32.204  23.489
 548.05  32.321  23.520
 548.55  32.204  23.427
 549.05  32.321  23.458
 549.55  32.087  23.489
 550.05  32.204  23.458
 550.55  32.204  23.458
 551.05  32.204  23.489
 551.55  32.321  23.458
 552.05  32.204  23.427
 552.55  32.204  23.489
 553.05  32.087  23.458
 553.55  32.204  23.458
 554.05  32.321  23.458
 554.55  32.321  23.489
 555.05  32.321  23.489
 555.55  32.321  23.458
 556.05  32.087  23.489
 556.55  32.321  23.458
 557.05  32.321  23.489
 557.55  32.321  23.427
 558.05  32.321  23.458
 558.55  32.321  23.489
 559.05  32.321  23.427
 559.55  32.438  23.458
 560.05  32.321  23.489
 560.55  32.321  23.489
 561.05  32.438  23.489
 561.55  32.321  23.489
 562.05  32.438  23.458
 562.55  32.321  23.489
 563.05  32.321  23.489
 563.55  32.438  23.489
 564.05  32.204  23.489
 564.55  32.438  23.458
 565.05  32.321  23.458
 565.55  32.438  23.458
 566.05  32.438  23.458
 566.55  32.555  23.489
 567.05  32.438  23.520
 567.55  32.438  23.458
 568.05  32.321  23.489
 568.55  32.321  23.489
 569.05  32.321  23.489
 569.55  32.555  23.458
 570.05  32.438  23.489
 570.55  32.438  23.458
 571.05  32.321  23.458
 571.55  32.438  23.489
 572.05  32.438  23.520
 572.55  32.555  23.520
 573.05  33.022  23.458
 573.55  32.789  23.489
 574.05  32.555  23.520
 574.55  32.438  23.458
 575.05  32.555  23.489
 575.55  32.672  23.458
 576.05  32.438  23.489
 576.55  32.555  23.489
 577.05  32.555  23.520
 577.55  32.672  23.489
 578.05  32.438  23.458
 578.55  32.672  23.489
 579.05  32.555  23.427
 579.55  32.789  23.489
 580.05  32.555  23.458
 580.55  32.555  23.489
 581.05  32.555  23.458
 581.55  32.555  23.489
 582.05  32.672  23.489
 582.55  32.672  23.489
 583.05  32.555  23.489
 583.55  32.555  23.520
 584.05  32.555  23.489
 584.55  32.672  23.489
 585.05  32.555  23.458
 585.55  32.672  23.489
 586.05  32.672  23.458
 586.55  32.672  23.520
 587.05  32.555  23.458
 587.55  32.672  23.489
 588.05  32.555  23.520
 588.55  32.555  23.489
 589.05  32.672  23.489
 589.55  32.672  23.489
 590.05  32.672  23.489
 590.55  32.672  23.458
 591.05  32.672  23.489
 591.55  32.672  23.489
 592.05  32.672  23.489
 592.55  32.672  23.458
 593.05  32.672  23.489
 593.55  32.672  23.489
 594.05  32.789  23.489
 594.55  32.672  23.458
 595.05  32.789  23.520
 595.55  32.906  23.520
 596.05  32.672  23.520
 596.55  32.672  23.520
 597.05  32.906  23.458
 597.55  32.789  23.489
 598.05  32.672  23.489
 598.55  32.789  23.489
 599.05  32.555  23.520
 599.55  32.789  23.489
 600.05  32.789  23.520
 600.55  32.672  23.458
 601.05  32.906  23.458
 601.55  32.789  23.520
 602.05  32.906  23.520
 602.55  32.906  23.520
 603.05  32.789  23.489
 603.55  32.906  23.489
 604.05  32.906  23.489
 604.55  32.789  23.458
 605.05  32.789  23.520
 605.55  32.789  23.489
 606.05  32.672  23.489
 606.55  32.906  23.458
 607.05  32.906  23.489
 607.55  32.789  23.489
 608.05  32.906  23.489
 608.55  33.022  23.489
 609.05  32.906  23.458
 609.55  32.789  23.489
 610.05  32.906  23.520
 610.55  32.789  23.489
 611.05  32.906  23.520
 611.55  32.906  23.489
 612.05  32.906  23.458
 612.55  32.906  23.520
 613.05  32.906  23.489
 613.55  32.906  23.489
 614.05  32.906  23.520
 614.55  32.906  23.520
 615.05  33.022  23.489
 615.55  32.906  23.489
 616.05  33.022  23.458
 616.55  32.906  23.489
 617.05  33.022  23.489
 617.55  33.022  23.489
 618.05  33.022  23.489
 618.55  32.906  23.489
 619.05  32.906  23.489
 619.55  32.906  23.520
 620.05  33.139  23.550
 620.55  32.906  23.489
 621.05  33.022  23.489
 621.55  33.022  23.489
 622.05  33.022  23.520
 622.55  33.022  23.520
 623.05  33.022  23.489
 623.55  33.022  23.489
 624.05  33.022  23.489
 624.56  33.022  23.489
 625.06  33.139  23.489
 625.56  33.022  23.520
 626.06  33.022  23.520
 626.56  33.022  23.489
 627.06  33.022  23.489
 627.56  33.022  23.489
 628.06  33.022  23.489
 628.56  33.139  23.489
 629.06  33.022  23.489
 629.56  33.139  23.489
 630.06  33.022  23.489
 630.56  33.022  23.489
 631.06  33.139  23.458
 631.56  33.139  23.520
 632.06  33.139  23.458
 632.56  33.139  23.489
 633.06  33.139  23.520
 633.56  33.139  23.520
 634.06  33.256  23.489
 634.56  33.256  23.489
 635.06  33.139  23.520
 635.56  33.256  23.489
 636.06  33.139  23.489
 636.56  33.256  23.550
 637.06  33.256  23.520
 637.56  33.139  23.520
 638.06  33.139  23.520
 638.56  33.256  23.520
 639.06  33.256  23.489
 639.56  33.256  23.520
 640.06  33.256  23.489
 640.56  33.256  23.489
 641.06  33.256  23.489
 641.56  33.256  23.489
 642.06  33.139  23.520
 642.56  33.373  23.520
 643.06  33.139  23.520
 643.56  33.256  23.520
 644.06  33.373  23.520
 644.56  33.373  23.520
 645.06  33.373  23.520
 645.56  33.373  23.489
 646.06  33.256  23.520
 646.56  33.373  23.458
 647.06  33.139  23.489
 647.56  33.373  23.489
 648.06  33.373  23.489
 648.56  33.490  23.550
 649.06  33.373  23.520
 649.56  33.256  23.550
 650.06  33.373  23.520
 650.56  33.373  23.520
 651.06  33.256  23.489
 651.56  33.373  23.489
 652.06  33.256  23.489
 652.56  33.373  23.550
 653.06  33.373  23.520
 653.56  33.490  23.489
 654.06  33.373  23.489
 654.56  33.373  23.520
 655.06  33.490  23.489
 655.56  33.373  23.520
 656.06  33.490  23.489
 656.56  33.490  23.520
 657.06  33.490  23.550
 657.56  33.373  23.520
 658.06  33.490  23.520
 658.56  33.490  23.520
 659.06  33.373  23.489
 659.56  33.373  23.520
 660.06  33.373  23.520
 660.56  33.490  23.520
 661.06  33.724  23.489
 661.56  33.490  23.520
 662.06  33.607  23.550
 662.56  33.490  23.550
 663.06  33.490  23.520
 663.56  33.490  23.520
 664.06  33.373  23.489
 664.56  33.724  23.489
 665.06  33.373  23.520
 665.56  33.490  23.520
 666.06  33.490  23.520
 666.56  33.607  23.520
 667.06  33.373  23.489
 667.56  33.373  23.489
 668.06  33.373  23.520
 668.56  33.490  23.520
 669.06  33.490  23.489
 669.56  33.490  23.550
 670.06  33.490  23.520
 670.56  33.490  23.520
 671.06  33.724  23.520
 671.56  33.490  23.489
 672.06  33.607  23.427
 672.56  33.490  23.489
 673.06  33.607  23.489
 673.56  33.607  23.520
 674.06  33.607  23.458
 674.56  33.724  23.489
 675.06  33.607  23.489
 675.56  33.607  23.489
 676.06  33.607  23.520
 676.56  33.607  23.489
 677.06  33.607  23.489
 677.56  33.607  23.520
 678.06  33.607  23.489
 678.56  33.607  23.520
 679.06  33.607  23.489
 679.56  33.607  23.520
 680.06  33.724  23.520
 680.56  33.724  23.550
 681.06  33.607  23.489
 681.56  33.724  23.520
 682.06  33.841  23.520
 682.56  33.607  23.550
 683.06  33.724  23.520
 683.56  33.724  23.520
 684.06  33.724  23.520
 684.56  33.607  23.520
 685.06  33.724  23.520
 685.56  33.607  23.489
 686.06  33.607  23.520
 686.56  33.490  23.550
 687.06  33.724  23.520
 687.56  33.724  23.520
 688.06  33.724  23.520
 688.56  33.724  23.520
 689.06  33.841  23.520
 689.56  33.724  23.520
 690.06  33.607  23.520
 690.56  33.724  23.520
 691.06  33.724  23.550
 691.56  33.724  23.520
 692.06  33.607  23.520
 692.56  33.841  23.520
 693.06  33.957  23.520
 693.56  33.841  23.489
 694.06  33.841  23.489
 694.56  33.841  23.520
 695.06  33.724  23.550
 695.56  33.724  23.520
 696.06  33.607  23.520
 696.56  33.724  23.520
 697.06  33.957  23.520
 697.56  33.841  23.520
 698.06  33.724  23.489
 698.56  33.841  23.520
 699.06  33.841  23.520
 699.56  33.724  23.489
 700.06  33.957  23.520
 700.56  33.841  23.489
 701.06  33.841  23.520
 701.56  33.957  23.550
 702.06  34.074  23.550
 702.56  33.957  23.550
 703.06  33.957  23.520
 703.56  33.841  23.520
 704.06  33.841  23.520
 704.56  33.841  23.520
 705.06  33.841  23.550
 705.56  33.841  23.489
 706.06  33.957  23.520
 706.56  33.957  23.520
 707.06  33.957  23.520
 707.56  33.957  23.489
 708.06  33.957  23.520
 708.56  33.957  23.520
 709.06  33.957  23.489
 709.56  33.841  23.520
 710.06  33.841  23.520
 710.56  33.957  23.550
 711.06  33.957  23.489
 711.56  33.957  23.581
 712.06  34.074  23.520
 712.56  33.957  23.550
 713.06  33.957  23.520
 713.56  34.074  23.520
 714.06  33.957  23.489
 714.56  34.074  23.550
 715.06  33.957  23.520
 715.56  34.074  23.520
 716.06  34.074  23.520
 716.56  33.957  23.520
 717.06  33.841  23.520
 717.56  34.191  23.520
 718.06  33.957  23.550
 718.56  34.074  23.489
 719.06  34.191  23.520
 719.56  33.957  23.520
 720.06  33.957  23.520
 720.56  34.074  23.520
 721.06  33.957  23.520
 721.56  34.191  23.550
 722.06  33.957  23.550
 722.56  33.957  23.520
 723.06  34.191  23.550
 723.56  34.074  23.550
 724.06  34.074  23.489
 724.56  34.074  23.520
 725.06  33.957  23.520
 725.56  33.957  23.550
 726.06  34.074  23.520
 726.57  34.074  23.520
 727.07  34.074  23.550
 727.57  34.074  23.520
 728.07  34.191  23.520
 728.57  34.074  23.520
 729.07  34.074  23.520
 729.57  34.074  23.550
 730.07  34.191  23.550
 730.57  34.191  23.520
 731.07  34.074  23.520
 731.57  34.191  23.489
 732.07  34.074  23.520
 732.57  34.191  23.520
 733.07  34.074  23.520
 733.57  34.191  23.520
 734.07  34.191  23.550
 734.57  34.308  23.550
 735.07  34.191  23.520
 735.57  34.074  23.520
 736.07  34.191  23.489
 736.57  34.191  23.520
 737.07  34.191  23.520
 737.57  34.074  23.520
 738.07  34.191  23.520
 738.57  34.308  23.520
 739.07  34.191  23.550
 739.57  34.191  23.550
 740.07  34.191  23.520
 740.57  34.191  23.489
 741.07  34.308  23.520
 741.57  34.191  23.520
 742.07  34.191  23.489
 742.57  34.308  23.550
 743.07  34.308  23.550
 743.57  34.074  23.520
 744.07  34.308  23.520
 744.57  34.191  23.520
 745.07  34.308  23.520
 745.57  34.308  23.520
 746.07  34.308  23.520
 746.57  34.191  23.520
 747.07  34.308  23.520
 747.57  34.191  23.550
 748.07  34.308  23.550
 748.57  34.308  23.520
 749.07  34.308  23.581
 749.57  34.191  23.520
 750.07  34.425  23.550
 750.57  34.542  23.550
 751.07  34.191  23.520
 751.57  34.308  23.550
 752.07  34.308  23.520
 752.57  34.308  23.550
 753.07  34.308  23.520
 753.57  34.308  23.550
 754.07  34.425  23.520
 754.57  34.542  23.581
 755.07  34.308  23.550
 755.57  34.542  23.550
 756.07  34.425  23.520
 756.57  34.308  23.550
 757.07  34.425  23.550
 757.57  34.425  23.520
 758.07  34.425  23.520
 758.57  34.425  23.520
 759.07  34.425  23.550
 759.57  34.542  23.550
 760.07  34.308  23.550
 760.57  34.425  23.520
 761.07  34.542  23.520
 761.57  34.542  23.550
 762.07  34.425  23.550
 762.57  34.425  23.550
 763.07  34.542  23.520
 763.57  34.425  23.550
 764.07  34.425  23.520
 764.57  34.308  23.550
 765.07  34.542  23.550
 765.57  34.308  23.550
 766.07  34.542  23.550
 766.57  34.425  23.550
 767.07  34.425  23.550
 767.57  34.659  23.550
 768.07  34.542  23.550
 768.57  34.425  23.550
 769.07  34.542  23.520
 769.57  34.542  23.520
 770.07  34.542  23.520
 770.57  34.425  23.550
 771.07  34.425  23.550
 771.57  34.542  23.520
 772.07  34.659  23.550
 772.57  34.425  23.550
 773.07  34.542  23.581
 773.57  34.542  23.520
 774.07  34.542  23.581
 774.57  34.542  23.550
 775.07  34.542  23.581
 775.57  34.542  23.520
 776.07  34.542  23.550
 776.57  34.659  23.520
 777.07  34.542  23.550
 777.57  34.659  23.581
 778.07  34.659  23.550
 778.57  34.542  23.550
 779.07  34.542  23.520
 779.57  34.659  23.550
 780.07  34.776  23.581
 780.57  34.542  23.550
 781.07  34.542  23.520
 781.57  34.659  23.520
 782.07  34.659  23.550
 782.57  34.542  23.520
 783.07  34.542  23.520
 783.57  34.542  23.581
 784.07  34.542  23.489
 784.57  34.542  23.550
 785.07  34.659  23.550
 785.57  34.659  23.520
 786.07  34.776  23.581
 786.57  34.659  23.489
 787.07  34.776  23.550
 787.57  34.659  23.550
 788.07  34.659  23.520
 788.57  34.659  23.550
 789.07  34.776  23.550
 789.57  34.776  23.550
 790.07  34.542  23.550
 790.57  34.776  23.581
 791.07  34.659  23.550
 791.57  34.659  23.520
 792.07  34.776  23.489
 792.57  34.659  23.520
 793.07  34.542  23.520
 793.57  34.542  23.550
 794.07  34.659  23.550
 794.57  34.659  23.550
 795.07  34.776  23.550
 795.57  34.776  23.550
 796.07  34.659  23.520
 796.57  34.776  23.520
 797.07  34.776  23.520
 797.57  34.776  23.550
 798.07  34.659  23.550
 798.57  34.776  23.550
 799.07  34.892  23.550
 799.57  34.776  23.550
 800.07  34.776  23.550
 800.57  34.776  23.550
 801.07  34.776  23.520
 801.57  34.776  23.550
 802.07  34.892  23.550
 802.57  34.776  23.550
 803.07  34.776  23.550
 803.57  34.776  23.520
 804.07  34.776  23.550
 804.57  34.776  23.581
 805.07  34.776  23.520
 805.57  34.776  23.520
 806.07  34.776  23.581
 806.57  34.776  23.520
 807.07  34.776  23.550
 807.57  34.776  23.550
 808.07  35.005  23.550
 808.57  35.005  23.550
 809.07  34.892  23.550
 809.57  34.892  23.520
 810.07  34.892  23.550
 810.57  35.005  23.520
 811.07  34.892  23.520
 811.57  34.776  23.550
 812.07  35.005  23.520
 812.57  34.892  23.550
 813.07  34.892  23.581
 813.57  34.892  23.550
 814.07  34.892  23.550
 814.57  34.892  23.550
 815.07  34.776  23.550
 815.57  34.892  23.520
 816.07  34.892  23.581
 816.57  34.892  23.550
 817.07  34.892  23.550
 817.57  34.892  23.581
 818.07  35.005  23.550
 818.57  34.892  23.520
 819.07  34.776  23.550
 819.57  34.892  23.550
 820.07  34.892  23.520
 820.57  34.892  23.550
 821.07  34.892  23.550
 821.57  34.892  23.550
 822.07  35.005  23.550
 822.57  34.892  23.550
 823.07  35.005  23.581
 823.57  35.005  23.550
 824.07  35.005  23.550
 824.57  35.005  23.520
 825.07  35.005  23.581
 825.57  34.892  23.520
 826.07  34.892  23.550
 826.57  35.005  23.550
 827.07  35.005  23.550
 827.57  35.005  23.550
 828.07  34.892  23.550
 828.57  35.005  23.550
 829.07  34.892  23.550
 829.57  35.133  23.550
 830.07  35.069  23.581
 830.57  35.005  23.550
 831.07  35.005  23.550
 831.57  35.005  23.520
 832.07  35.005  23.550
 832.57  35.069  23.550
 833.07  35.069  23.581
 833.57  35.069  23.550
 834.07  35.005  23.581
 834.57  35.005  23.550
 835.07  35.005  23.520
 835.57  35.005  23.550
 836.07  35.069  23.550
 836.57  35.069  23.550
 837.07  35.069  23.550
 837.57  35.005  23.520
 838.07  35.069  23.581
 838.57  35.069  23.550
 839.07  35.069  23.550
 839.58  35.069  23.550
 840.08  35.133  23.550
 840.58  35.069  23.520
 841.08  35.133  23.550
 841.58  35.069  23.520
 842.08  35.133  23.520
 842.58  35.069  23.581
 843.08  35.069  23.581
 843.58  35.133  23.581
 844.08  35.069  23.550
 844.58  35.069  23.581
 845.08  35.133  23.550
 845.58  35.069  23.550
 846.08  35.069  23.550
 846.58  35.005  23.581
 847.08  35.069  23.550
 847.58  35.069  23.520
 848.08  35.069  23.581
 848.58  35.069  23.550
 849.08  35.069  23.581
 849.58  35.133  23.550
 850.08  35.069  23.550
 850.58  35.069  23.550
 851.08  35.069  23.581
 851.58  35.133  23.581
 852.08  35.133  23.550
 852.58  35.069  23.520
 853.08  35.069  23.550
 853.58  35.069  23.581
 854.08  35.069  23.550
 854.58  35.133  23.581
 855.08  35.069  23.550
 855.58  35.069  23.581
 856.08  35.133  23.612
 856.58  35.133  23.581
 857.08  35.197  23.520
 857.58  35.197  23.581
 858.08  35.069  23.550
 858.58  35.069  23.581
 859.08  35.133  23.550
 859.58  35.005  23.581
 860.08  35.133  23.520
 860.58  35.197  23.520
 861.08  35.197  23.581
 861.58  35.197  23.550
 862.08  35.197  23.550
 862.58  35.133  23.581
 863.08  35.133  23.520
 863.58  35.197  23.581
 864.08  35.197  23.581
 864.58  35.197  23.581
 865.08  35.133  23.520
 865.58  35.197  23.612
 866.08  35.197  23.581
 866.58  35.197  23.612
 867.08  35.261  23.550
 867.58  35.197  23.581
 868.08  35.133  23.581
 868.58  35.069  23.550
 869.08  35.133  23.581
 869.58  35.197  23.550
 870.08  35.197  23.550
 870.58  35.197  23.550
 871.08  35.133  23.643
 871.58  35.197  23.581
 872.08  35.261  23.581
 872.58  35.197  23.581
 873.08  35.197  23.550
 873.58  35.133  23.550
 874.08  35.197  23.581
 874.58  35.197  23.581
 875.08  35.197  23.581
 875.58  35.197  23.581
 876.08  35.197  23.581
 876.58  35.197  23.550
 877.08  35.197  23.581
 877.58  35.197  23.550
 878.08  35.197  23.550
 878.58  35.133  23.520
 879.08  35.197  23.581
 879.58  35.197  23.550
 880.08  35.261  23.550
 880.58  35.197  23.581
 881.08  35.197  23.581
 881.58  35.261  23.581
 882.08  35.261  23.581
 882.58  35.261  23.550
 883.08  35.133  23.581
 883.58  35.261  23.581
 884.08  35.325  23.581
 884.58  35.261  23.581
 885.08  35.197  23.550
 885.58  35.197  23.612
 886.08  35.261  23.643
 886.58  35.197  23.581
 887.08  35.197  23.550
 887.58  35.261  23.550
 888.08  35.197  23.550
 888.58  35.197  23.520
 889.08  35.197  23.550
 889.58  35.261  23.581
 890.08  35.261  23.581
 890.58  35.261  23.581
 891.08  35.261  23.581
 891.58  35.197  23.550
 892.08  35.325  23.550
 892.58  35.261  23.550
 893.08  35.261  23.550
 893.58  35.325  23.550
 894.08  35.261  23.550
 894.58  35.261  23.581
 895.08  35.261  23.550
 895.58  35.261  23.550
 896.08  35.261  23.550
 896.58  35.261  23.520
 897.08  35.261  23.581
 897.58  35.261  23.581
 898.08  35.325  23.550
 898.58  35.261  23.581
 899.08  35.325  23.581
 899.58  35.261  23.581
 900.08  35.325  23.581
 900.58  35.261  23.581
 901.08  35.325  23.550
 901.58  35.261  23.581
 902.08  35.325  23.550
 902.58  35.325  23.581
 903.08  35.325  23.581
 903.58  35.325  23.581
 904.08  35.453  23.581
 904.58  35.261  23.550
 905.08  35.261  23.550
 905.58  35.261  23.581
 906.08  35.261  23.581
 906.58  35.261  23.581
 907.08  35.325  23.581
 907.58  35.325  23.581
 908.08  35.261  23.581
 908.58  35.325  23.581
 909.08  35.261  23.581
 909.58  35.325  23.581
 910.08  35.389  23.581
 910.58  35.325  23.612
 911.08  35.261  23.612
 911.58  35.325  23.550
 912.08  35.261  23.581
 912.58  35.325  23.581
 913.08  35.325  23.550
 913.58  35.261  23.550
 914.08  35.325  23.581
 914.58  35.389  23.581
 915.08  35.389  23.581
 915.58  35.325  23.581
 916.08  35.389  23.520
 916.58  35.389  23.581
 917.08  35.325  23.612
 917.58  35.325  23.581
 918.08  35.325  23.581
 918.58  35.389  23.581
 919.08  35.389  23.581
 919.58  35.325  23.581
 920.08  35.389  23.581
 920.58  35.325  23.612
 921.08  35.389  23.581
 921.58  35.453  23.581
 922.08  35.453  23.643
 922.58  35.389  23.550
 923.08  35.389  23.581
 923.58  35.389  23.581
 924.08  35.389  23.581
 924.58  35.453  23.550
 925.08  35.389  23.581
 925.58  35.453  23.581
 926.08  35.389  23.550
 926.58  35.325  23.612
 927.08  35.389  23.612
 927.58  35.389  23.612
 928.08  35.325  23.612
 928.58  35.389  23.581
 929.08  35.453  23.581
 929.58  35.389  23.581
 930.08  35.389  23.581
 930.58  35.389  23.643
 931.08  35.517  23.581
 931.58  35.389  23.581
 932.08  35.389  23.612
 932.58  35.453  23.581
 933.08  35.389  23.612
 933.58  35.453  23.581
 934.08  35.389  23.612
 934.58  35.389  23.581
 935.08  35.325  23.612
 935.58  35.389  23.612
 936.08  35.389  23.581
 936.58  35.453  23.581
 937.08  35.453  23.581
 937.58  35.389  23.550
 938.08  35.453  23.581
 938.58  35.389  23.581
 939.08  35.453  23.550
 939.58  35.453  23.612
 940.08  35.453  23.581
 940.58  35.453  23.581
 941.08  35.453  23.612
 941.58  35.453  23.550
 942.08  35.389  23.550
 942.58  35.389  23.581
 943.08  35.389  23.550
 943.58  35.453  23.612
 944.08  35.453  23.550
 944.58  35.453  23.581
 945.08  35.453  23.612
 945.58  35.517  23.581
 946.08  35.453  23.550
 946.58  35.453  23.581
 947.08  35.453  23.581
 947.58  35.453  23.581
 948.08  35.517  23.581
 948.58  35.453  23.581
 949.08  35.517  23.581
 949.58  35.389  23.612
 950.08  35.581  23.581
 950.58  35.453  23.581
 951.08  35.453  23.581
 951.58  35.453  23.581
 952.08  35.517  23.612
 952.58  35.453  23.612
 953.09  35.389  23.550
 953.59  35.517  23.612
 954.09  35.453  23.581
 954.59  35.581  23.581
 955.09  35.453  23.612
 955.59  35.517  23.612
 956.09  35.581  23.581
 956.59  35.453  23.581
 957.09  35.517  23.581
 957.59  35.517  23.581
 958.09  35.517  23.581
 958.59  35.453  23.612
 959.09  35.453  23.581
 959.59  35.453  23.550
 960.09  35.453  23.581
 960.59  35.517  23.581
 961.09  35.453  23.581
 961.59  35.517  23.643
 962.09  35.517  23.581
 962.59  35.517  23.581
 963.09  35.517  23.581
 963.59  35.517  23.612
 964.09  35.517  23.612
 964.59  35.517  23.612
 965.09  35.453  23.581
 965.59  35.517  23.581
 966.09  35.517  23.581
 966.59  35.517  23.581
 967.09  35.517  23.581
 967.59  35.517  23.550
 968.09  35.517  23.581
 968.59  35.581  23.643
 969.09  35.517  23.581
 969.59  35.581  23.581
 970.09  35.581  23.612
 970.59  35.581  23.612
 971.09  35.517  23.581
 971.59  35.581  23.550
 972.09  35.517  23.612
 972.59  35.581  23.581
 973.09  35.517  23.581
 973.59  35.517  23.612
 974.09  35.581  23.612
 974.59  35.453  23.612
 975.09  35.581  23.581
 975.59  35.517  23.643
 976.09  35.581  23.581
 976.59  35.453  23.581
 977.09  35.581  23.581
 977.59  35.645  23.581
 978.09  35.645  23.643
 978.59  35.517  23.581
 979.09  35.517  23.581
 979.59  35.581  23.581
 980.09  35.581  23.612
 980.59  35.581  23.581
 981.09  35.581  23.612
 981.59  35.581  23.581
 982.09  35.581  23.581
 982.59  35.581  23.581
 983.09  35.517  23.581
 983.59  35.581  23.612
 984.09  35.581  23.612
 984.59  35.581  23.643
 985.09  35.645  23.581
 985.59  35.581  23.612
 986.09  35.581  23.581
 986.59  35.517  23.612
 987.09  35.453  23.612
 987.59  35.645  23.612
 988.09  35.581  23.581
 988.59  35.709  23.612
 989.09  35.645  23.581
 989.59  35.581  23.612
 990.09  35.581  23.581
 990.59  35.581  23.643
 991.09  35.645  23.581
 991.59  35.581  23.581
 992.09  35.645  23.612
 992.59  35.645  23.581
 993.09  35.645  23.581
 993.59  35.581  23.612
 994.09  35.645  23.581
 994.59  35.645  23.612
 995.09  35.645  23.612
 995.59  35.645  23.643
 996.09  35.645  23.581
 996.59  35.645  23.612
 997.09  35.645  23.581
 997.59  35.645  23.612
 998.09  35.517  23.581
 998.59  35.581  23.612
 999.09  35.453  23.581
 999.59  35.581  23.581
1000.09  35.581  23.612
1000.59  35.581  23.581
1001.09  35.645  23.581
1001.59  35.645  23.612
1002.09  35.645  23.581
1002.59  35.645  23.612
1003.09  35.645  23.581
1003.59  35.645  23.612
1004.09  35.709  23.581
1004.59  35.645  23.612
1005.09  35.645  23.612
1005.59  35.709  23.612
1006.09  35.581  23.612
1006.59  35.645  23.612
1007.09  35.709  23.581
1007.59  35.645  23.612
1008.09  35.645  23.581
1008.59  35.645  23.581
1009.09  35.837  23.581
1009.59  35.581  23.581
1010.09  35.645  23.643
1010.59  35.709  23.674
1011.09  35.645  23.581
1011.59  35.709  23.643
1012.09  35.709  23.612
1012.59  35.709  23.612
1013.09  35.645  23.612
1013.59  35.709  23.643
1014.09  35.645  23.581
1014.59  35.645  23.643
1015.09  35.645  23.643
1015.59  35.709  23.581
1016.09  35.709  23.612
1016.59  35.709  23.581
1017.09  35.645  23.612
1017.59  35.645  23.612
1018.09  35.709  23.674
1018.59  35.709  23.612
1019.09  35.709  23.612
1019.59  35.709  23.612
1020.09  35.773  23.643
1020.59  35.709  23.612
1021.09  35.773  23.643
1021.59  35.773  23.612
1022.09  35.709  23.581
1022.59  35.645  23.612
1023.09  35.773  23.612
1023.59  35.709  23.643
1024.09  35.709  23.612
1024.59  35.773  23.612
1025.09  35.709  23.581
1025.59  35.709  23.612
1026.09  35.709  23.581
1026.59  35.773  23.643
1027.09  35.709  23.581
1027.59  35.709  23.612
1028.09  35.709  23.643
1028.59  35.645  23.612
1029.09  35.773  23.612
1029.59  35.773  23.581
1030.09  35.709  23.612
1030.59  35.709  23.643
1031.09  35.773  23.581
1031.59  35.709  23.581
1032.09  35.709  23.612
1032.59  35.709  23.612
1033.09  35.709  23.612
1033.59  35.709  23.612
1034.09  35.709  23.612
1034.59  35.773  23.674
1035.09  35.773  23.612
1035.59  35.773  23.643
1036.09  35.709  23.643
1036.59  35.773  23.612
1037.09  35.773  23.581
1037.59  35.773  23.612
1038.09  35.709  23.612
1038.59  35.709  23.581
1039.09  35.773  23.643
1039.59  35.837  23.612
1040.09  35.709  23.612
1040.59  35.773  23.581
1041.09  35.773  23.612
1041.59  35.773  23.581
1042.09  35.773  23.643
1042.59  35.773  23.612
1043.09  35.837  23.612
1043.59  35.773  23.612
1044.09  35.773  23.612
1044.59  35.773  23.581
1045.09  35.837  23.643
1045.59  35.709  23.612
1046.09  35.773  23.643
1046.59  35.709  23.612
1047.09  35.773  23.581
1047.59  35.773  23.612
1048.09  35.773  23.612
1048.59  35.709  23.643
1049.09  35.837  23.643
1049.59  35.773  23.643
1050.09  35.773  23.581
1050.59  35.837  23.612
1051.09  35.773  23.612
1051.59  35.773  23.612
1052.09  35.773  23.612
1052.59  35.773  23.612
1053.09  35.837  23.643
1053.59  35.837  23.581
1054.09  35.773  23.612
1054.59  35.901  23.643
1055.09  35.773  23.612
1055.59  35.773  23.612
1056.09  35.901  23.612
1056.59  35.837  23.612
1057.09  35.837  23.612
1057.59  35.773  23.612
1058.09  35.837  23.581
1058.59  35.773  23.612
1059.09  35.773  23.612
1059.59  35.773  23.643
1060.09  35.773  23.643
1060.59  35.837  23.612
1061.09  35.773  23.612
1061.59  35.773  23.643
1062.09  35.901  23.674
1062.59  35.837  23.643
1063.09  35.837  23.612
1063.59  35.773  23.643
1064.09  35.773  23.643
1064.59  35.837  23.643
1065.09  35.773  23.612
1065.59  35.837  23.643
1066.10  35.837  23.612
1066.60  35.901  23.612
1067.10  35.773  23.643
1067.60  35.837  23.612
1068.10  35.901  23.612
1068.60  35.837  23.612
1069.10  35.837  23.612
1069.60  35.837  23.643
1070.10  35.837  23.612
1070.60  36.285  23.581
1071.10  35.773  23.612
1071.60  35.837  23.612
1072.10  35.901  23.643
1072.60  35.837  23.643
1073.10  35.901  23.612
1073.60  35.837  23.612
1074.10  35.837  23.643
1074.60  35.901  23.612
1075.10  35.837  23.643
1075.60  35.837  23.643
1076.10  35.965  23.612
1076.60  36.029  23.612
1077.10  35.837  23.643
1077.60  35.837  23.581
1078.10  35.773  23.612
1078.60  35.773  23.612
1079.10  35.901  23.612
1079.60  35.901  23.674
1080.10  35.837  23.612
1080.60  35.837  23.612
1081.10  35.901  23.612
1081.60  35.901  23.612
1082.10  35.901  23.643
1082.60  35.901  23.612
1083.10  35.901  23.550
1083.60  35.901  23.674
1084.10  35.901  23.612
1084.60  35.901  23.643
1085.10  35.965  23.674
1085.60  35.901  23.612
1086.10  35.901  23.643
1086.60  35.901  23.643
1087.10  35.901  23.643
1087.60  35.965  23.674
1088.10  35.901  23.612
1088.60  35.837  23.612
1089.10  35.965  23.612
1089.60  35.965  23.705
1090.10  35.901  23.612
1090.60  35.901  23.643
1091.10  35.773  23.581
1091.60  35.773  23.612
1092.10  35.901  23.612
1092.60  35.901  23.612
1093.10  35.901  23.643
1093.60  35.901  23.643
1094.10  35.901  23.643
1094.60  35.901  23.643
1095.10  35.901  23.674
1095.60  35.901  23.612
1096.10  35.965  23.643
1096.60  35.901  23.612
1097.10  35.965  23.643
1097.60  35.965  23.674
1098.10  35.965  23.612
1098.60  35.965  23.612
1099.10  35.965  23.612
1099.60  35.965  23.612
1100.10  35.901  23.612
1100.60  35.901  23.612
1101.10  36.029  23.612
1101.60  35.901  23.643
1102.10  36.029  23.643
1102.60  35.965  23.612
1103.10  35.965  23.643
1103.60  35.965  23.674
1104.10  35.901  23.612
1104.60  35.965  23.612
1105.10  35.901  23.612
1105.60  35.901  23.612
1106.10  35.965  23.612
1106.60  35.965  23.612
1107.10  35.965  23.612
1107.60  35.965  23.643
1108.10  35.901  23.674
1108.60  35.965  23.643
1109.10  35.965  23.643
1109.60  35.901  23.643
1110.10  35.965  23.612
1110.60  36.029  23.643
1111.10  36.029  23.643
1111.60  36.093  23.643
1112.10  35.965  23.643
1112.60  35.965  23.643
1113.10  36.029  23.612
1113.60  35.965  23.612
1114.10  35.965  23.643
1114.60  35.901  23.612
1115.10  35.965  23.643
1115.60  36.029  23.643
1116.10  35.965  23.643
1116.60  35.965  23.612
1117.10  35.965  23.643
1117.60  35.965  23.612
1118.10  35.965  23.643
1118.60  35.965  23.612
1119.10  35.965  23.612
1119.60  35.901  23.612
1120.10  35.965  23.643
1120.60  35.965  23.643
1121.10  36.029  23.643
1121.60  36.029  23.674
1122.10  36.029  23.643
1122.60  35.965  23.612
1123.10  35.965  23.643
1123.60  35.965  23.612
1124.10  36.029  23.612
1124.60  36.029  23.643
1125.10  35.965  23.643
1125.60  35.965  23.643
1126.10  36.029  23.643
1126.60  35.965  23.643
1127.10  36.029  23.612
1127.60  36.029  23.612
1128.10  35.965  23.612
1128.60  36.029  23.612
1129.10  36.029  23.643
1129.60  35.965  23.674
1130.10  36.029  23.612
1130.60  36.093  23.612
1131.10  36.093  23.643
1131.60  36.029  23.643
1132.10  36.029  23.643
1132.60  35.965  23.643
1133.10  36.029  23.643
1133.60  36.029  23.643
1134.10  36.029  23.643
1134.60  36.093  23.643
1135.10  36.029  23.643
1135.60  35.965  23.612
1136.10  36.029  23.643
1136.60  36.029  23.674
1137.10  36.029  23.643
1137.60  36.029  23.643
1138.10  36.029  23.612
1138.60  36.029  23.674
1139.10  36.029  23.612
1139.60  35.965  23.674
1140.10  36.093  23.674
1140.60  36.093  23.643
1141.10  35.965  23.612
1141.60  36.029  23.674
1142.10  36.029  23.643
1142.60  36.093  23.674
1143.10  36.029  23.674
1143.60  36.029  23.643
1144.10  36.029  23.643
1144.60  36.093  23.643
1145.10  35.965  23.643
1145.60  36.093  23.674
1146.10  35.965  23.643
1146.60  36.029  23.643
1147.10  36.029  23.643
1147.60  35.965  23.612
1148.10  36.093  23.674
1148.60  36.093  23.674
1149.10  36.029  23.643
1149.60  36.093  23.643
1150.10  36.093  23.612
1150.60  36.157  23.643
1151.10  36.093  23.674
1151.60  36.093  23.612
1152.10  36.093  23.643
1152.60  36.029  23.674
1153.10  36.093  23.643
1153.60  36.029  23.612
1154.10  36.029  23.643
1154.60  36.029  23.674
1155.10  36.029  23.643
1155.60  36.093  23.643
1156.10  36.157  23.643
1156.60  36.093  23.643
1157.10  36.093  23.643
1157.60  36.093  23.674
1158.10  36.093  23.643
1158.60  36.093  23.643
1159.10  36.093  23.643
1159.60  36.093  23.705
1160.10  36.093  23.643
1160.60  36.093  23.643
1161.10  36.029  23.643
1161.60  36.093  23.643
1162.10  36.093  23.643
1162.60  36.093  23.643
1163.10  36.029  23.643
1163.60  36.157  23.612
1164.10  36.093  23.643
1164.60  36.093  23.643
1165.10  36.093  23.643
1165.60  36.157  23.643
1166.10  36.093  23.643
1166.60  36.093  23.643
1167.10  36.093  23.643
1167.60  36.093  23.643
1168.10  36.157  23.674
1168.60  36.093  23.643
1169.10  36.093  23.643
1169.60  36.029  23.674
1170.10  36.029  23.643
1170.60  36.157  23.674
1171.10  36.093  23.643
1171.60  36.093  23.612
1172.10  36.157  23.674
1172.60  36.157  23.674
1173.10  36.157  23.643
1173.60  36.093  23.674
1174.10  36.093  23.612
1174.60  36.093  23.643
1175.10  36.157  23.643
1175.60  36.093  23.643
1176.10  36.093  23.612
1176.60  36.157  23.643
1177.10  36.093  23.674
1177.60  36.157  23.612
1178.10  36.157  23.612
1178.60  36.221  23.643
1179.11  36.157  23.643
1179.61  36.157  23.674
1180.11  36.093  23.643
1180.61  36.157  23.674
1181.11  36.157  23.643
1181.61  36.157  23.674
1182.11  36.157  23.643
1182.61  36.157  23.643
1183.11  36.157  23.674
1183.61  36.221  23.705
1184.11  36.157  23.643
1184.61  36.157  23.643
1185.11  36.157  23.674
1185.61  36.157  23.612
1186.11  36.093  23.643
1186.61  36.157  23.643
1187.11  36.157  23.643
1187.61  36.157  23.643
1188.11  36.157  23.674
1188.61  36.221  23.674
1189.11  36.157  23.643
1189.61  36.157  23.643
1190.11  36.029  23.643
1190.61  36.157  23.674
1191.11  36.157  23.612
1191.61  36.157  23.735
1192.11  36.093  23.643
1192.61  36.157  23.643
1193.11  36.157  23.643
1193.61  36.093  23.643
1194.11  36.157  23.643
1194.61  36.157  23.612
1195.11  36.285  23.643
1195.61  36.157  23.612
1196.11  36.093  23.643
1196.61  36.157  23.612
1197.11  36.157  23.674
1197.61  36.157  23.643
1198.11  36.157  23.705
1198.61  36.157  23.674
1199.11  36.157  23.674
1199.61  36.157  23.643
1200.11  36.157  23.643
1200.61  36.157  23.643
1201.11  36.157  23.643
1201.61  36.157  23.643
1202.11  36.093  23.674
1202.61  36.157  23.612
1203.11  36.221  23.643
1203.61  36.157  23.674
1204.11  36.157  23.705
1204.61  36.157  23.643
1205.11  36.221  23.643
1205.61  36.093  23.674
1206.11  36.221  23.643
1206.61  36.221  23.674
1207.11  36.221  23.674
1207.61  36.157  23.643
1208.11  36.221  23.674
1208.61  36.221  23.674
1209.11  36.093  23.674
1209.61  36.221  23.674
1210.11  36.157  23.674
1210.61  36.157  23.674
1211.11  36.157  23.674
1211.61  36.157  23.674
1212.11  36.221  23.643
1212.61  36.285  23.674
1213.11  36.221  23.674
1213.61  36.285  23.705
1214.11  36.157  23.643
1214.61  36.221  23.674
1215.11  36.157  23.612
1215.61  36.221  23.674
1216.11  36.221  23.643
1216.61  36.221  23.674
1217.11  36.221  23.674
1217.61  36.157  23.643
1218.11  36.221  23.643
1218.61  36.221  23.643
1219.11  36.221  23.643
1219.61  36.285  23.643
1220.11  36.285  23.674
1220.61  36.221  23.674
1221.11  36.221  23.705
1221.61  36.157  23.643
1222.11  36.221  23.674
1222.61  36.221  23.674
1223.11  36.157  23.674
1223.61  36.285  23.705
1224.11  36.221  23.643
1224.61  36.285  23.674
1225.11  36.285  23.674
1225.61  36.221  23.643
1226.11  36.221  23.643
1226.61  36.349  23.643
1227.11  36.221  23.643
1227.61  36.285  23.643
1228.11  36.221  23.674
1228.61  36.221  23.643
1229.11  36.285  23.674
1229.61  36.285  23.705
1230.11  36.221  23.674
1230.61  36.221  23.674
1231.11  36.221  23.674
1231.61  36.157  23.674
1232.11  36.221  23.674
1232.61  36.221  23.674
1233.11  36.221  23.612
1233.61  36.285  23.674
1234.11  36.157  23.674
1234.61  36.221  23.674
1235.11  36.221  23.705
1235.61  36.221  23.674
1236.11  36.285  23.643
1236.61  36.285  23.643
1237.11  36.221  23.674
1237.61  36.285  23.674
1238.11  36.285  23.674
1238.61  36.285  23.674
1239.11  36.221  23.674
1239.61  36.221  23.674
1240.11  36.285  23.643
1240.61  36.349  23.674
1241.11  36.285  23.674
1241.61  36.221  23.674
1242.11  36.349  23.643
1242.61  36.221  23.643
1243.11  36.285  23.674
1243.61  36.285  23.643
1244.11  36.285  23.643
1244.61  36.285  23.674
1245.11  36.157  23.674
1245.61  36.285  23.705
1246.11  36.285  23.674
1246.61  36.285  23.705
1247.11  36.221  23.674
1247.61  36.221  23.674
1248.11  36.285  23.674
1248.61  36.221  23.674
1249.11  36.221  23.643
1249.61  36.285  23.674
1250.11  36.285  23.705
1250.61  36.285  23.643
1251.11  36.349  23.674
1251.61  36.221  23.674
1252.11  36.285  23.612
1252.61  36.285  23.674
1253.11  36.285  23.674
1253.61  36.285  23.705
1254.11  36.349  23.612
1254.61  36.285  23.674
1255.11  36.285  23.705
1255.61  36.285  23.705
1256.11  36.349  23.705
1256.61  36.285  23.674
1257.11  36.285  23.674
1257.61  36.285  23.674
1258.11  36.349  23.674
1258.61  36.349  23.674
1259.11  36.221  23.674
1259.61  36.349  23.674
1260.11  36.349  23.705
1260.61  36.221  23.643
1261.11  36.221  23.705
1261.61  36.349  23.674
1262.11  36.349  23.766
1262.61  36.285  23.705
1263.11  36.285  23.705
1263.61  36.285  23.705
1264.11  36.349  23.735
1264.61  36.285  23.674
1265.11  36.349  23.674
1265.61  36.285  23.674
1266.11  36.349  23.643
1266.61  36.285  23.674
1267.11  36.285  23.643
1267.61  36.285  23.674
1268.11  36.349  23.674
1268.61  36.349  23.674
1269.11  36.285  23.705
1269.61  36.285  23.674
1270.11  36.285  23.643
1270.61  36.285  23.674
1271.11  36.349  23.735
1271.61  36.349  23.674
1272.11  36.349  23.643
1272.61  36.221  23.705
1273.11  36.349  23.674
1273.61  36.285  23.643
1274.11  36.349  23.705
1274.61  36.349  23.674
1275.11  36.349  23.674
1275.61  36.349  23.674
1276.11  36.285  23.674
1276.61  36.349  23.643
1277.11  36.349  23.643
1277.61  36.349  23.705
1278.11  36.349  23.674
1278.61  36.349  23.674
1279.11  36.349  23.705
1279.61  36.349  23.643
1280.11  36.349  23.674
1280.61  36.349  23.705
1281.11  36.349  23.643
1281.61  36.413  23.705
1282.11  36.349  23.705
1282.61  36.221  23.705
1283.11  36.349  23.643
1283.61  36.349  23.705
1284.11  36.349  23.674
1284.61  36.349  23.705
1285.11  36.349  23.674
1285.61  36.349  23.674
1286.11  36.349  23.674
1286.61  36.349  23.643
1287.11  36.349  23.705
1287.61  36.285  23.674
1288.11  36.413  23.643
1288.61  36.349  23.674
1289.11  36.285  23.705
1289.61  36.349  23.705
1290.11  36.285  23.674
1290.61  36.349  23.674
1291.11  36.349  23.735
1291.61  36.349  23.674
1292.11  36.349  23.674
1292.62  36.413  23.735
1293.12  36.349  23.674
1293.62  36.349  23.674
1294.12  36.413  23.674
1294.62  36.349  23.674
1295.12  36.349  23.674
1295.62  36.349  23.643
1296.12  36.413  23.674
1296.62  36.349  23.674
1297.12  36.349  23.674
1297.62  36.413  23.705
1298.12  36.285  23.674
1298.62  36.349  23.674
1299.12  36.413  23.705
1299.62  36.413  23.674
1300.12  36.413  23.705
1300.62  36.413  23.705
1301.12  36.413  23.643
1301.62  36.413  23.674
1302.12  36.413  23.674
1302.62  36.413  23.674
1303.12  36.349  23.705
1303.62  36.477  23.643
1304.12  36.413  23.705
1304.62  36.413  23.674
1305.12  36.413  23.674
1305.62  36.413  23.705
1306.12  36.413  23.643
1306.62  36.477  23.674
1307.12  36.413  23.643
1307.62  36.413  23.705
1308.12  36.285  23.705
1308.62  36.413  23.705
1309.12  36.413  23.674
1309.62  36.413  23.674
1310.12  36.413  23.674
1310.62  36.477  23.705
1311.12  36.349  23.643
1311.62  36.413  23.705
1312.12  36.477  23.705
1312.62  36.349  23.735
1313.12  36.477  23.674
1313.62  36.413  23.705
1314.12  36.349  23.766
1314.62  36.413  23.674
1315.12  36.477  23.735
1315.62  36.349  23.674
1316.12  36.413  23.705
1316.62  36.413  23.674
1317.12  36.413  23.735
1317.62  36.413  23.705
1318.12  36.413  23.643
1318.62  36.413  23.705
1319.12  36.477  23.705
1319.62  36.349  23.705
1320.12  36.413  23.705
1320.62  36.349  23.674
1321.12  36.413  23.705
1321.62  36.349  23.705
1322.12  36.477  23.705
1322.62  36.413  23.643
1323.12  36.477  23.674
1323.62  36.413  23.674
1324.12  36.413  23.674
1324.62  36.413  23.705
1325.12  36.349  23.705
1325.62  36.477  23.705
1326.12  36.349  23.735
1326.62  36.413  23.674
1327.12  36.541  23.674
1327.62  36.349  23.674
1328.12  36.477  23.674
1328.62  36.413  23.705
1329.12  36.477  23.705
1329.62  36.541  23.705
1330.12  36.413  23.674
1330.62  36.413  23.674
1331.12  36.413  23.705
1331.62  36.477  23.705
1332.12  36.413  23.674
1332.62  36.541  23.674
1333.12  36.413  23.674
1333.62  36.413  23.705
1334.12  36.477  23.705
1334.62  36.413  23.674
1335.12  36.413  23.705
1335.62  36.477  23.705
1336.12  36.477  23.735
1336.62  36.477  23.643
1337.12  36.477  23.674
1337.62  36.413  23.674
1338.12  36.413  23.674
1338.62  36.477  23.705
1339.12  36.477  23.674
1339.62  36.541  23.705
1340.12  36.477  23.705
1340.62  36.541  23.674
1341.12  36.477  23.705
1341.62  36.413  23.674
1342.12  36.541  23.674
1342.62  36.477  23.705
1343.12  36.477  23.705
1343.62  36.541  23.705
1344.12  36.477  23.735
1344.62  36.541  23.705
1345.12  36.541  23.705
1345.62  36.477  23.735
1346.12  36.477  23.705
1346.62  36.541  23.705
1347.12  36.413  23.735
1347.62  36.477  23.705
1348.12  36.413  23.674
1348.62  36.541  23.735
1349.12  36.413  23.705
1349.62  36.477  23.705
1350.12  36.477  23.705
1350.62  36.477  23.674
1351.12  36.477  23.705
1351.62  36.413  23.674
1352.12  36.605  23.705
1352.62  36.477  23.674
1353.12  36.541  23.674
1353.62  36.477  23.705
1354.12  36.477  23.735
1354.62  36.477  23.735
1355.12  36.477  23.674
1355.62  36.477  23.705
1356.12  36.541  23.705
1356.62  36.477  23.705
1357.12  36.477  23.705
1357.62  36.541  23.705
1358.12  36.541  23.705
1358.62  36.477  23.705
1359.12  36.477  23.674
1359.62  36.477  23.705
1360.12  36.541  23.705
1360.62  36.477  23.705
1361.12  36.541  23.705
1361.62  36.541  23.705
1362.12  36.605  23.674
1362.62  36.477  23.705
1363.12  36.477  23.674
1363.62  36.541  23.735
1364.12  36.541  23.674
1364.62  36.477  23.705
1365.12  36.541  23.705
1365.62  36.477  23.735
1366.12  36.477  23.705
1366.62  36.413  23.705
1367.12  36.477  23.705
1367.62  36.477  23.705
1368.12  36.477  23.705
1368.62  36.477  23.705
1369.12  36.541  23.705
1369.62  36.477  23.705
1370.12  36.541  23.705
1370.62  36.541  23.705
1371.12  36.477  23.705
1371.62  36.349  23.705
1372.12  36.605  23.705
1372.62  36.477  23.674
1373.12  36.477  23.705
1373.62  36.477  23.705
1374.12  36.477  23.705
1374.62  36.541  23.705
1375.12  36.477  23.735
1375.62  36.477  23.705
1376.12  36.477  23.705
1376.62  36.413  23.766
1377.12  36.541  23.705
1377.62  36.541  23.705
1378.12  36.477  23.735
1378.62  36.477  23.674
1379.12  36.541  23.705
1379.62  36.477  23.674
1380.12  36.541  23.705
1380.62  36.541  23.705
1381.12  36.541  23.705
1381.62  36.541  23.705
1382.12  36.541  23.674
1382.62  36.605  23.705
1383.12  36.477  23.674
1383.62  36.477  23.705
1384.12  36.541  23.705
1384.62  36.541  23.705
1385.12  36.541  23.735
1385.62  36.669  23.705
1386.12  36.477  23.705
1386.62  36.541  23.705
1387.12  36.605  23.735
1387.62  36.541  23.705
1388.12  36.413  23.705
1388.62  36.541  23.705
1389.12  36.541  23.643
1389.62  36.541  23.705
1390.12  36.605  23.705
1390.62  36.541  23.705
1391.12  36.477  23.705
1391.62  36.541  23.766
1392.12  36.605  23.674
1392.62  36.541  23.705
1393.12  36.477  23.735
1393.62  36.541  23.705
1394.12  36.605  23.705
1394.62  36.669  23.735
1395.12  36.541  23.735
1395.62  36.669  23.705
1396.12  36.541  23.674
1396.62  36.541  23.674
1397.12  36.541  23.735
1397.62  36.541  23.674
1398.12  36.477  23.674
1398.62  36.541  23.705
1399.12  36.477  23.705
1399.62  36.541  23.735
1400.12  36.605  23.705
1400.62  36.605  23.705
1401.12  36.541  23.735
1401.62  36.541  23.705
1402.12  36.605  23.674
1402.62  36.605  23.705
1403.12  36.605  23.735
1403.62  36.541  23.766
1404.12  36.541  23.705
1404.62  36.605  23.674
1405.12  36.605  23.705
1405.62  36.605  23.674
1406.12  36.541  23.643
1406.62  36.477  23.735
1407.12  36.605  23.705
1407.62  36.541  23.735
1408.12  36.605  23.705
1408.62  36.541  23.735
1409.12  36.541  23.705
1409.62  36.541  23.674
1410.12  36.541  23.705
1410.62  36.541  23.705
1411.12  36.477  23.705
1411.62  36.605  23.705
1412.12  36.605  23.705
1412.62  36.605  23.674
1413.12  36.605  23.735
1413.62  36.541  23.735
1414.12  36.605  23.735
1414.62  36.541  23.705
1415.12  36.477  23.705
1415.62  36.605  23.735
1416.12  36.541  23.766
1416.63  36.605  23.735
1417.13  36.605  23.735
1417.63  36.477  23.705
1418.13  36.541  23.674
1418.63  36.541  23.735
1419.13  36.605  23.705
1419.63  36.541  23.705
1420.13  36.541  23.735
1420.63  36.413  23.705
1421.13  36.605  23.705
1421.63  36.669  23.735
1422.13  36.605  23.735
1422.63  36.669  23.705
1423.13  36.605  23.735
1423.63  36.605  23.735
1424.13  36.541  23.705
1424.63  36.541  23.705
1425.13  36.541  23.735
1425.63  36.541  23.735
1426.13  36.669  23.705
1426.63  36.605  23.735
1427.13  36.669  23.735
1427.63  36.605  23.705
1428.13  36.605  23.735
1428.63  36.605  23.705
1429.13  36.605  23.735
1429.63  36.605  23.735
1430.13  36.605  23.705
1430.63  36.605  23.705
1431.13  36.605  23.735
1431.63  36.605  23.705
1432.13  36.605  23.705
1432.63  36.605  23.705
1433.13  36.605  23.705
1433.63  36.605  23.705
1434.13  36.605  23.705
1434.63  36.605  23.705
1435.13  36.605  23.735
1435.63  36.605  23.735
1436.13  36.605  23.705
1436.63  36.541  23.735
1437.13  36.605  23.735
1437.63  36.541  23.735
1438.13  36.669  23.735
1438.63  36.605  23.705
1439.13  36.669  23.735
1439.63  36.733  23.674
1440.13  36.605  23.735
1440.63  36.605  23.735
1441.13  36.605  23.735
1441.63  36.541  23.705
1442.13  36.733  23.766
1442.63  36.605  23.705
1443.13  36.797  23.674
1443.63  36.605  23.735
1444.13  36.605  23.705
1444.63  36.541  23.735
1445.13  36.669  23.735
1445.63  36.605  23.735
1446.13  36.669  23.705
1446.63  36.605  23.735
1447.13  36.541  23.735
1447.63  36.669  23.735
1448.13  36.669  23.735
1448.63  36.541  23.735
1449.13  36.605  23.705
1449.63  36.605  23.735
1450.13  36.605  23.705
1450.63  36.605  23.705
1451.13  36.669  23.735
1451.63  36.605  23.735
1452.13  36.605  23.705
1452.63  36.669  23.705
1453.13  36.669  23.766
1453.63  36.605  23.735
1454.13  36.669  23.735
1454.63  36.605  23.766
1455.13  36.669  23.735
1455.63  36.669  23.735
1456.13  36.669  23.705
1456.63  36.477  23.735
1457.13  36.605  23.735
1457.63  36.605  23.735
1458.13  36.605  23.735
1458.63  36.541  23.766
1459.13  36.605  23.735
1459.63  36.669  23.705
1460.13  36.669  23.735
1460.63  36.669  23.735
1461.13  36.605  23.735
1461.63  36.669  23.705
1462.13  36.669  23.735
1462.63  36.669  23.735
1463.13  36.605  23.705
1463.63  36.669  23.735
1464.13  36.605  23.735
1464.63  36.669  23.735
1465.13  36.669  23.735
1465.63  36.669  23.705
1466.13  36.541  23.797
1466.63  36.605  23.705
1467.13  36.733  23.735
1467.63  36.733  23.705
1468.13  36.669  23.735
1468.63  36.605  23.705
1469.13  36.669  23.705
1469.63  36.669  23.735
1470.13  36.669  23.735
1470.63  36.669  23.766
1471.13  36.605  23.735
1471.63  36.669  23.735
1472.13  36.733  23.735
1472.63  36.669  23.705
1473.13  36.669  23.705
1473.63  36.669  23.735
1474.13  36.669  23.735
1474.63  36.733  23.705
1475.13  36.733  23.766
1475.63  36.733  23.705
1476.13  36.669  23.735
1476.63  36.669  23.735
1477.13  36.669  23.705
1477.63  36.669  23.766
1478.13  36.669  23.766
1478.63  36.669  23.705
1479.13  36.733  23.735
1479.63  36.797  23.705
1480.13  36.733  23.735
1480.63  36.669  23.735
1481.13  36.669  23.735
1481.63  36.669  23.735
1482.13  36.669  23.735
1482.63  36.669  23.735
1483.13  36.797  23.766
1483.63  36.669  23.674
1484.13  36.669  23.735
1484.63  36.733  23.735
1485.13  36.669  23.766
1485.63  36.669  23.705
1486.13  36.669  23.705
1486.63  36.669  23.735
1487.13  36.797  23.735
1487.63  36.733  23.766
1488.13  36.669  23.766
1488.63  36.733  23.735
1489.13  36.669  23.735
1489.63  36.669  23.766
1490.13  36.669  23.735
1490.63  36.669  23.735
1491.13  36.797  23.735
1491.63  36.669  23.735
1492.13  36.669  23.735
1492.63  36.669  23.735
1493.13  36.669  23.735
1493.63  36.797  23.735
1494.13  36.733  23.735
1494.63  36.797  23.705
1495.13  36.733  23.735
1495.63  36.733  23.705
1496.13  36.669  23.766
1496.63  36.733  23.766
1497.13  36.733  23.705
1497.63  36.733  23.735
1498.13  36.733  23.735
1498.63  36.733  23.735
1499.13  36.669  23.766
1499.63  36.669  23.705
1500.13  36.733  23.705
1500.63  36.669  23.766
1501.13  36.733  23.797
1501.63  36.669  23.735
1502.13  36.733  23.735
1502.63  36.733  23.705
1503.13  36.797  23.705
1503.63  36.733  23.735
1504.13  36.733  23.735
1504.63  36.669  23.766
1505.13  36.669  23.766
1505.63  36.733  23.735
1506.13  36.733  23.735
1506.63  36.605  23.735
1507.13  36.733  23.735
1507.63  36.733  23.766
1508.13  36.733  23.766
1508.63  36.733  23.735
1509.13  36.797  23.735
1509.63  36.733  23.766
1510.13  36.733  23.735
1510.63  36.733  23.674
1511.13  36.733  23.705
1511.63  36.733  23.766
1512.13  36.733  23.735
1512.63  36.733  23.766
1513.13  36.733  23.705
1513.63  36.669  23.735
1514.13  36.733  23.766
1514.63  36.733  23.766
1515.13  36.733  23.674
1515.63  36.669  23.735
1516.13  36.797  23.766
1516.63  36.797  23.735
1517.13  36.797  23.766
1517.63  36.669  23.766
1518.13  36.669  23.766
1518.63  36.669  23.735
1519.13  36.733  23.735
1519.63  36.797  23.766
1520.13  36.733  23.766
1520.63  36.733  23.735
1521.13  36.733  23.735
1521.63  36.733  23.766
1522.13  36.797  23.735
1522.63  36.669  23.735
1523.13  36.797  23.735
1523.63  36.733  23.766
1524.13  36.797  23.766
1524.63  36.797  23.797
1525.13  36.733  23.766
1525.63  36.797  23.766
1526.13  36.733  23.766
1526.63  36.733  23.766
1527.13  36.797  23.735
1527.63  36.733  23.735
1528.13  36.797  23.735
1528.63  36.797  23.766
1529.13  36.733  23.735
1529.64  36.797  23.735
1530.14  36.733  23.766
1530.64  36.861  23.766
1531.14  36.797  23.766
1531.64  36.797  23.705
1532.14  36.733  23.766
1532.64  36.733  23.735
1533.14  36.797  23.766
1533.64  36.669  23.735
1534.14  36.797  23.735
1534.64  36.733  23.766
1535.14  36.733  23.735
1535.64  36.733  23.766
1536.14  36.797  23.766
1536.64  36.797  23.735
1537.14  36.797  23.735
1537.64  36.797  23.797
1538.14  36.797  23.766
1538.64  36.669  23.766
1539.14  36.861  23.735
1539.64  36.797  23.735
1540.14  36.797  23.735
1540.64  36.797  23.766
1541.14  36.797  23.705
1541.64  36.797  23.828
1542.14  36.797  23.766
1542.64  36.797  23.735
1543.14  36.797  23.766
1543.64  36.797  23.766
1544.14  36.797  23.766
1544.64  36.797  23.705
1545.14  36.733  23.674
1545.64  36.797  23.766
1546.14  36.797  23.766
1546.64  36.797  23.797
1547.14  36.797  23.797
1547.64  36.797  23.735
1548.14  36.797  23.766
1548.64  36.733  23.766
1549.14  36.797  23.797
1549.64  36.797  23.766
1550.14  36.733  23.766
1550.64  36.797  23.766
1551.14  36.861  23.766
1551.64  36.797  23.766
1552.14  36.733  23.797
1552.64  36.733  23.735
1553.14  36.861  23.766
1553.64  36.797  23.766
1554.14  36.797  23.766
1554.64  36.797  23.735
1555.14  36.797  23.766
1555.64  36.797  23.735
1556.14  36.733  23.766
1556.64  36.797  23.766
1557.14  36.797  23.705
1557.64  36.797  23.735
1558.14  36.797  23.766
1558.64  36.797  23.735
1559.14  36.797  23.705
1559.64  36.797  23.766
1560.14  36.797  23.797
1560.64  36.797  23.735
1561.14  36.733  23.766
1561.64  36.797  23.735
1562.14  36.797  23.735
1562.64  36.797  23.766
1563.14  36.797  23.766
1563.64  36.797  23.735
1564.14  36.797  23.766
1564.64  36.797  23.766
1565.14  36.797  23.797
1565.64  36.797  23.735
1566.14  36.861  23.766
1566.64  36.861  23.766
1567.14  36.797  23.735
1567.64  36.797  23.735
1568.14  36.861  23.797
1568.64  36.861  23.766
1569.14  36.797  23.735
1569.64  36.797  23.766
1570.14  36.797  23.766
1570.64  36.861  23.797
1571.14  36.797  23.766
1571.64  36.797  23.797
1572.14  36.797  23.766
1572.64  36.797  23.735
1573.14  36.861  23.735
1573.64  36.861  23.766
1574.14  36.797  23.674
1574.64  36.797  23.735
1575.14  36.797  23.705
1575.64  36.733  23.766
1576.14  36.797  23.735
1576.64  36.797  23.766
1577.14  36.797  23.766
1577.64  36.861  23.735
1578.14  36.861  23.766
1578.64  36.861  23.766
1579.14  36.797  23.766
1579.64  36.861  23.766
1580.14  36.797  23.766
1580.64  36.733  23.797
1581.14  36.797  23.735
1581.64  36.797  23.766
1582.14  36.861  23.766
1582.64  36.861  23.766
1583.14  36.861  23.735
1583.64  36.797  23.735
1584.14  36.861  23.766
1584.64  36.989  23.766
1585.14  36.861  23.766
1585.64  36.861  23.735
1586.14  36.925  23.766
1586.64  36.797  23.735
1587.14  36.797  23.766
1587.64  36.797  23.766
1588.14  36.861  23.766
1588.64  36.925  23.766
1589.14  36.861  23.643
1589.64  36.861  23.735
1590.14  36.861  23.735
1590.64  36.861  23.766
1591.14  36.861  23.766
1591.64  36.861  23.766
1592.14  36.797  23.735
1592.64  36.861  23.735
1593.14  36.797  23.735
1593.64  36.797  23.766
1594.14  36.861  23.735
1594.64  36.861  23.766
1595.14  36.797  23.735
1595.64  37.053  23.766
1596.14  36.861  23.735
1596.64  36.925  23.766
1597.14  36.861  23.766
1597.64  36.861  23.766
1598.14  36.861  23.735
1598.64  36.861  23.766
1599.14  36.797  23.766
1599.64  36.989  23.766
1600.14  36.925  23.735
1600.64  36.861  23.797
1601.14  36.861  23.766
1601.64  36.861  23.735
1602.14  36.861  23.797
1602.64  36.861  23.766
1603.14  36.797  23.766
1603.64  36.797  23.797
1604.14  36.925  23.766
1604.64  36.925  23.766
1605.14  36.861  23.766
1605.64  36.861  23.766
1606.14  36.925  23.766
1606.64  36.861  23.735
1607.14  36.989  23.735
1607.64  36.925  23.797
1608.14  36.797  23.766
1608.64  36.797  23.705
1609.14  36.797  23.735
1609.64  36.861  23.766
1610.14  36.925  23.766
1610.64  36.861  23.797
1611.14  36.925  23.766
1611.64  36.925  23.797
1612.14  36.925  23.766
1612.64  36.925  23.766
1613.14  36.861  23.735
1613.64  36.861  23.735
1614.14  36.925  23.766
1614.64  36.861  23.766
1615.14  36.861  23.797
1615.64  36.925  23.766
1616.14  36.925  23.766
1616.64  36.861  23.797
1617.14  36.989  23.766
1617.64  36.925  23.766
1618.14  36.925  23.766
1618.64  36.925  23.735
1619.14  36.925  23.766
1619.64  36.925  23.766
1620.14  36.989  23.828
1620.64  36.925  23.766
1621.14  36.861  23.797
1621.64  36.925  23.766
1622.14  36.861  23.797
1622.64  36.861  23.766
1623.14  36.861  23.797
1623.64  36.861  23.797
1624.14  36.925  23.766
1624.64  36.861  23.797
1625.14  36.925  23.797
1625.64  36.925  23.766
1626.14  36.989  23.797
1626.64  36.925  23.705
1627.14  36.925  23.766
1627.64  37.053  23.766
1628.14  36.925  23.766
1628.64  36.861  23.766
1629.14  36.925  23.766
1629.64  36.925  23.797
1630.14  36.925  23.766
1630.64  36.925  23.797
1631.14  36.925  23.766
1631.64  36.925  23.828
1632.14  36.925  23.766
1632.64  36.925  23.797
1633.14  36.925  23.766
1633.64  36.925  23.766
1634.14  36.989  23.797
1634.64  36.989  23.766
1635.14  36.989  23.766
1635.64  36.925  23.766
1636.14  36.925  23.766
1636.64  36.989  23.797
1637.14  36.925  23.797
1637.64  36.925  23.797
1638.14  36.925  23.735
1638.64  36.861  23.797
1639.14  36.925  23.735
1639.64  36.989  23.766
1640.14  36.925  23.766
1640.64  36.925  23.735
1641.14  36.989  23.766
1641.64  36.925  23.797
1642.14  36.989  23.766
1642.65  36.925  23.735
1643.15  36.925  23.766
1643.65  36.925  23.828
1644.15  36.861  23.797
1644.65  36.925  23.735
1645.15  36.989  23.766
1645.65  36.925  23.766
1646.15  36.925  23.797
1646.65  36.925  23.766
1647.15  36.989  23.797
1647.65  36.989  23.766
1648.15  36.989  23.766
1648.65  36.989  23.766
1649.15  36.989  23.766
1649.65  36.989  23.797
1650.15  36.989  23.797
1650.65  36.989  23.797
1651.15  36.861  23.766
1651.65  36.925  23.766
1652.15  36.989  23.797
1652.65  36.989  23.735
1653.15  36.925  23.766
1653.65  36.989  23.797
1654.15  36.925  23.766
1654.65  36.989  23.735
1655.15  36.989  23.766
1655.65  36.989  23.766
1656.15  36.925  23.766
1656.65  36.925  23.766
1657.15  37.053  23.797
1657.65  36.989  23.797
1658.15  36.989  23.766
1658.65  36.989  23.797
1659.15  36.925  23.797
1659.65  36.989  23.766
1660.15  36.989  23.797
1660.65  36.989  23.797
1661.15  37.053  23.797
1661.65  36.989  23.797
1662.15  36.989  23.766
1662.65  36.925  23.766
1663.15  36.989  23.797
1663.65  36.925  23.828
1664.15  36.989  23.797
1664.65  37.053  23.766
1665.15  36.989  23.766
1665.65  36.989  23.735
1666.15  36.989  23.797
1666.65  37.053  23.797
1667.15  36.989  23.797
1667.65  36.989  23.797
1668.15  36.989  23.797
1668.65  37.053  23.797
1669.15  36.989  23.797
1669.65  36.925  23.797
1670.15  36.925  23.766
1670.65  36.989  23.828
1671.15  37.053  23.828
1671.65  36.989  23.766
1672.15  36.989  23.859
1672.65  37.053  23.766
1673.15  36.989  23.828
1673.65  37.053  23.797
1674.15  36.989  23.735
1674.65  36.989  23.766
1675.15  36.989  23.797
1675.65  36.989  23.797
1676.15  36.989  23.766
1676.65  36.989  23.828
1677.15  36.989  23.828
1677.65  36.989  23.797
1678.15  36.925  23.797
1678.65  36.989  23.797
1679.15  37.117  23.766
1679.65  37.053  23.828
1680.15  36.989  23.797
1680.65  36.989  23.735
1681.15  36.989  23.797
1681.65  37.053  23.797
1682.15  36.861  23.797
1682.65  37.053  23.797
1683.15  36.925  23.797
1683.65  36.989  23.797
1684.15  36.989  23.766
1684.65  36.989  23.797
1685.15  36.989  23.797
1685.65  37.053  23.766
1686.15  36.989  23.766
1686.65  36.989  23.766
1687.15  36.989  23.828
1687.65  36.989  23.766
1688.15  37.053  23.859
1688.65  36.989  23.828
1689.15  36.989  23.797
1689.65  36.925  23.797
1690.15  36.925  23.797
1690.65  36.989  23.797
1691.15  36.989  23.766
1691.65  37.053  23.766
1692.15  36.989  23.797
1692.65  37.053  23.766
1693.15  37.053  23.797
1693.65  36.989  23.766
1694.15  36.989  23.797
1694.65  36.989  23.797
1695.15  36.989  23.766
1695.65  36.989  23.797
1696.15  36.925  23.797
1696.65  36.989  23.797
1697.15  36.989  23.828
1697.65  36.989  23.797
1698.15  37.053  23.828
1698.65  36.989  23.766
1699.15  37.053  23.828
1699.65  36.989  23.797
1700.15  36.989  23.766
1700.65  36.925  23.797
1701.15  37.053  23.797
1701.65  36.989  23.735
1702.15  37.053  23.766
1702.65  37.117  23.797
1703.15  37.053  23.766
1703.65  36.989  23.797
1704.15  37.053  23.797
1704.65  36.989  23.797
1705.15  37.053  23.797
1705.65  36.925  23.797
1706.15  37.053  23.797
1706.65  36.989  23.797
1707.15  36.989  23.766
1707.65  36.989  23.797
1708.15  36.989  23.797
1708.65  36.989  23.797
1709.15  37.053  23.797
1709.65  36.989  23.766
1710.15  36.989  23.766
1710.65  36.989  23.797
1711.15  37.053  23.797
1711.65  37.053  23.797
1712.15  37.053  23.797
1712.65  37.053  23.797
1713.15  37.053  23.766
1713.65  36.989  23.797
1714.15  37.053  23.797
1714.65  36.989  23.766
1715.15  36.925  23.797
1715.65  36.989  23.766
1716.15  37.053  23.797
1716.65  37.053  23.766
1717.15  37.053  23.766
1717.65  37.117  23.766
1718.15  36.925  23.797
1718.65  37.053  23.797
1719.15  37.053  23.766
1719.65  37.053  23.797
1720.15  37.053  23.766
1720.65  36.989  23.797
1721.15  36.989  23.797
1721.65  37.053  23.797
1722.15  36.989  23.766
1722.65  36.989  23.797
1723.15  37.053  23.735
1723.65  36.989  23.828
1724.15  36.989  23.797
1724.65  37.053  23.797
1725.15  37.053  23.797
1725.65  37.053  23.766
1726.15  36.989  23.797
1726.65  36.989  23.797
1727.15  37.053  23.797
1727.65  37.053  23.797
1728.15  37.053  23.797
1728.65  37.053  23.797
1729.15  37.053  23.797
1729.65  37.053  23.797
1730.15  37.053  23.797
1730.65  37.053  23.828
1731.15  37.053  23.797
1731.65  37.053  23.797
1732.15  37.053  23.797
1732.65  36.989  23.828
1733.15  37.117  23.797
1733.65  36.989  23.766
1734.15  37.053  23.766
1734.65  37.053  23.797
1735.15  36.989  23.797
1735.65  37.053  23.828
1736.15  37.117  23.797
1736.65  36.989  23.797
1737.15  37.181  23.797
1737.65  37.117  23.828
1738.15  37.053  23.859
1738.65  37.117  23.797
1739.15  37.053  23.797
1739.65  37.053  23.828
1740.15  37.117  23.797
1740.65  37.053  23.828
1741.15  37.053  23.828
1741.65  37.117  23.766
1742.15  37.053  23.797
1742.65  37.117  23.828
1743.15  37.117  23.828
1743.65  37.117  23.797
1744.15  37.053  23.797
1744.65  37.117  23.828
1745.15  37.053  23.797
1745.65  36.989  23.828
1746.15  37.053  23.859
1746.65  37.053  23.797
1747.15  37.053  23.828
1747.65  37.117  23.797
1748.15  37.117  23.797
1748.65  37.053  23.797
1749.15  37.117  23.797
1749.65  37.053  23.828
1750.15  37.053  23.828
1750.65  37.117  23.797
1751.15  37.053  23.828
1751.65  37.053  23.797
1752.15  37.053  23.828
1752.65  37.117  23.797
1753.15  36.989  23.797
1753.65  37.117  23.797
1754.15  37.117  23.828
1754.65  37.117  23.797
1755.15  37.053  23.797
1755.66  37.117  23.828
1756.16  37.117  23.797
1756.66  37.181  23.828
1757.16  37.117  23.828
1757.66  37.053  23.797
1758.16  37.053  23.797
1758.66  37.181  23.797
1759.16  37.117  23.797
1759.66  37.053  23.797
1760.16  37.117  23.797
1760.66  37.181  23.828
1761.16  37.053  23.828
1761.66  37.117  23.797
1762.16  37.117  23.797
1762.66  37.053  23.828
1763.16  37.053  23.797
1763.66  37.117  23.797
1764.16  37.053  23.797
1764.66  37.117  23.828
1765.16  37.117  23.797
1765.66  37.181  23.797
1766.16  37.117  23.828
1766.66  36.989  23.828
1767.16  37.117  23.859
1767.66  37.053  23.797
1768.16  37.117  23.828
1768.66  37.053  23.797
1769.16  37.053  23.828
1769.66  37.053  23.828
1770.16  37.117  23.828
1770.66  37.117  23.797
1771.16  37.117  23.828
1771.66  37.053  23.797
1772.16  37.117  23.889
1772.66  37.181  23.766
1773.16  37.053  23.828
1773.66  37.117  23.828
1774.16  37.117  23.828
1774.66  37.117  23.797
1775.16  37.053  23.828
1775.66  37.117  23.889
1776.16  37.117  23.797
1776.66  37.117  23.859
1777.16  37.053  23.766
1777.66  37.117  23.797
1778.16  37.117  23.828
1778.66  37.117  23.828
1779.16  37.181  23.797
1779.66  37.117  23.828
1780.16  37.117  23.797
1780.66  37.117  23.797
1781.16  37.181  23.797
1781.66  37.117  23.797
1782.16  37.117  23.828
1782.66  37.117  23.797
1783.16  37.181  23.828
1783.66  37.117  23.828
1784.16  37.117  23.797
1784.66  37.053  23.828
1785.16  37.053  23.828
1785.66  37.117  23.828
1786.16  37.181  23.828
1786.66  37.117  23.828
1787.16  37.117  23.797
1787.66  37.181  23.797
1788.16  37.117  23.797
1788.66  37.117  23.797
1789.16  37.117  23.797
1789.66  37.053  23.797
1790.16  37.117  23.828
1790.66  37.181  23.797
1791.16  37.117  23.828
1791.66  37.117  23.859
1792.16  37.117  23.797
1792.66  37.181  23.766
1793.16  37.181  23.797
1793.66  37.181  23.828
1794.16  37.117  23.797
1794.66  37.181  23.797
1795.16  37.117  23.828
1795.66  37.181  23.828
1796.16  37.117  23.766
1796.66  37.117  23.797
1797.16  37.117  23.797
1797.66  37.053  23.828
1798.16  36.989  23.859
1798.66  37.117  23.828
1799.16  37.117  23.797
1799.66  37.181  23.797
1800.16  37.181  23.828
1800.66  37.181  23.859
1801.16  37.117  23.797
1801.66  37.117  23.828
1802.16  37.181  23.797
1802.66  37.181  23.797
1803.16  37.117  23.828
1803.66  37.117  23.797
1804.16  37.117  23.797
1804.66  37.181  23.797
1805.16  37.181  23.797
1805.66  37.181  23.828
1806.16  37.117  23.797
1806.66  37.053  23.828
1807.16  37.181  23.797
1807.66  37.117  23.828
1808.16  37.053  23.828
1808.66  37.181  23.828
1809.16  37.117  23.828
1809.66  37.181  23.797
1810.16  37.181  23.828
1810.66  37.181  23.797
1811.16  37.117  23.828
1811.66  37.117  23.828
1812.16  37.117  23.828
1812.66  37.053  23.797
1813.16  37.117  23.828
1813.66  37.181  23.766
1814.16  37.245  23.828
1814.66  37.117  23.766
1815.16  37.117  23.797
1815.66  37.181  23.797
1816.16  37.117  23.797
1816.66  37.181  23.797
1817.16  37.181  23.797
1817.66  37.181  23.797
1818.16  37.181  23.828
1818.66  37.117  23.797
1819.16  37.053  23.828
1819.66  37.181  23.797
1820.16  37.245  23.859
1820.66  37.181  23.828
1821.16  37.181  23.797
1821.66  37.181  23.797
1822.16  37.117  23.828
1822.66  37.181  23.797
1823.16  37.117  23.797
1823.66  37.181  23.828
1824.16  37.181  23.828
1824.66  37.181  23.828
1825.16  37.117  23.828
1825.66  37.117  23.859
1826.16  37.181  23.797
1826.66  37.245  23.828
1827.16  37.181  23.797
1827.66  37.181  23.828
1828.16  37.245  23.828
1828.66  37.181  23.828
1829.16  37.117  23.797
1829.66  37.245  23.828
1830.16  37.309  23.797
1830.66  37.245  23.828
1831.16  37.181  23.828
1831.66  37.117  23.859
1832.16  37.181  23.828
1832.66  37.181  23.828
1833.16  37.309  23.797
1833.66  37.117  23.797
1834.16  37.245  23.828
1834.66  37.181  23.859
1835.16  37.181  23.828
1835.66  37.181  23.828
1836.16  37.181  23.828
1836.66  37.181  23.859
1837.16  37.181  23.859
1837.66  37.181  23.797
1838.16  37.181  23.859
1838.66  37.181  23.828
1839.16  37.309  23.828
1839.66  37.245  23.828
1840.16  37.181  23.797
1840.66  37.181  23.859
1841.16  37.181  23.859
1841.66  37.181  23.859
1842.16  37.181  23.828
1842.66  37.117  23.828
1843.16  37.245  23.828
1843.66  37.181  23.859
1844.16  37.117  23.828
1844.66  37.181  23.828
1845.16  37.245  23.828
1845.66  37.117  23.828
1846.16  37.181  23.828
1846.66  37.181  23.828
1847.16  37.181  23.859
1847.66  37.181  23.797
1848.16  37.117  23.828
1848.66  37.245  23.889
1849.16  37.309  23.828
1849.66  37.181  23.828
1850.16  37.181  23.828
1850.66  37.181  23.828
1851.16  37.181  23.797
1851.66  37.181  23.889
1852.16  37.245  23.828
1852.66  37.181  23.828
1853.16  37.181  23.828
1853.66  37.245  23.859
1854.16  37.245  23.828
1854.66  37.245  23.859
1855.16  37.053  23.766
1855.66  37.181  23.828
1856.16  37.181  23.859
1856.66  37.245  23.828
1857.16  37.181  23.797
1857.66  37.117  23.859
1858.16  37.245  23.828
1858.66  37.181  23.828
1859.16  37.245  23.859
1859.66  37.181  23.828
1860.16  37.245  23.828
1860.66  37.181  23.828
1861.16  37.309  23.828
1861.66  37.181  23.797
1862.16  37.181  23.828
1862.66  37.181  23.859
1863.16  37.181  23.859
1863.66  37.181  23.828
1864.16  37.181  23.797
1864.66  37.245  23.828
1865.16  37.181  23.828
1865.66  37.309  23.828
1866.16  37.245  23.828
1866.66  37.181  23.797
1867.16  37.181  23.828
1867.66  37.245  23.828
1868.16  37.245  23.797
1868.66  37.181  23.828
1869.17  37.181  23.828
1869.67  37.181  23.828
1870.17  37.181  23.797
1870.67  37.181  23.828
1871.17  37.181  23.889
1871.67  37.181  23.828
1872.17  37.117  23.828
1872.67  37.181  23.797
1873.17  37.181  23.828
1873.67  37.181  23.828
1874.17  37.181  23.797
1874.67  37.245  23.828
1875.17  37.181  23.797
1875.67  37.181  23.828
1876.17  37.245  23.828
1876.67  37.181  23.766
1877.17  37.245  23.828
1877.67  37.117  23.828
1878.17  37.245  23.828
1878.67  37.181  23.828
1879.17  37.181  23.859
1879.67  37.181  23.797
1880.17  37.245  23.828
1880.67  37.245  23.828
1881.17  37.245  23.828
1881.67  37.181  23.828
1882.17  37.181  23.828
1882.67  37.245  23.797
1883.17  37.245  23.828
1883.67  37.181  23.828
1884.17  37.309  23.797
1884.67  37.245  23.797
1885.17  37.309  23.859
1885.67  37.245  23.859
1886.17  37.373  23.828
1886.67  37.245  23.797
1887.17  37.245  23.828
1887.67  37.245  23.859
1888.17  37.245  23.828
1888.67  37.245  23.859
1889.17  37.437  23.828
1889.67  37.245  23.797
1890.17  37.245  23.797
1890.67  37.245  23.828
1891.17  37.309  23.828
1891.67  37.309  23.828
1892.17  37.245  23.859
1892.67  37.309  23.828
1893.17  37.245  23.828
1893.67  37.181  23.828
1894.17  37.245  23.828
1894.67  37.245  23.828
1895.17  37.245  23.859
1895.67  37.245  23.828
1896.17  37.309  23.859
1896.67  37.245  23.859
1897.17  37.181  23.859
1897.67  37.245  23.828
1898.17  37.245  23.797
1898.67  37.245  23.828
1899.17  37.245  23.828
1899.67  37.309  23.828
1900.17  37.245  23.859
1900.67  37.245  23.828
1901.17  37.245  23.828
1901.67  37.245  23.828
1902.17  37.309  23.828
1902.67  37.245  23.859
1903.17  37.245  23.828
1903.67  37.373  23.859
1904.17  37.309  23.859
1904.67  37.245  23.828
1905.17  37.309  23.766
1905.67  37.309  23.889
1906.17  37.373  23.828
1906.67  37.245  23.859
1907.17  37.309  23.828
1907.67  37.309  23.889
1908.17  37.309  23.859
1908.67  37.309  23.828
1909.17  37.309  23.889
1909.67  37.245  23.828
1910.17  37.245  23.859
1910.67  37.309  23.828
1911.17  37.181  23.859
1911.67  37.245  23.889
1912.17  37.245  23.859
1912.67  37.245  23.859
1913.17  37.309  23.859
1913.67  37.245  23.828
1914.17  37.309  23.828
1914.67  37.309  23.828
1915.17  37.181  23.859
1915.67  37.309  23.859
1916.17  37.245  23.828
1916.67  37.309  23.859
1917.17  37.309  23.859
1917.67  37.181  23.828
1918.17  37.245  23.859
1918.67  37.245  23.828
1919.17  37.181  23.859
1919.67  37.245  23.889
1920.17  37.309  23.859
1920.67  37.245  23.859
1921.17  37.245  23.828
1921.67  37.245  23.859
1922.17  37.309  23.828
1922.67  37.309  23.828
1923.17  37.245  23.828
1923.67  37.309  23.828
1924.17  37.309  23.859
1924.67  37.309  23.828
1925.17  37.309  23.859
1925.67  37.245  23.859
1926.17  37.245  23.828
1926.67  37.245  23.828
1927.17  37.309  23.859
1927.67  37.309  23.828
1928.17  37.309  23.859
1928.67  37.245  23.828
1929.17  37.309  23.859
1929.67  37.309  23.797
1930.17  37.309  23.859
1930.67  37.245  23.859
1931.17  37.373  23.859
1931.67  37.309  23.889
1932.17  37.245  23.797
1932.67  37.309  23.889
1933.17  37.309  23.859
1933.67  37.245  23.889
1934.17  37.181  23.828
1934.67  37.309  23.859
1935.17  37.309  23.828
1935.67  37.181  23.828
1936.17  37.309  23.859
1936.67  37.309  23.828
1937.17  37.245  23.828
1937.67  37.245  23.797
1938.17  37.309  23.828
1938.67  37.309  23.859
1939.17  37.245  23.859
1939.67  37.309  23.828
1940.17  37.245  23.797
1940.67  37.245  23.859
1941.17  37.245  23.859
1941.67  37.309  23.859
1942.17  37.245  23.859
1942.67  37.309  23.889
1943.17  37.309  23.828
1943.67  37.373  23.828
1944.17  37.309  23.859
1944.67  37.245  23.859
1945.17  37.245  23.828
1945.67  37.373  23.859
1946.17  37.373  23.828
1946.67  37.245  23.859
1947.17  37.309  23.828
1947.67  37.437  23.859
1948.17  37.309  23.859
1948.67  37.309  23.859
1949.17  37.373  23.859
1949.67  37.309  23.859
1950.17  37.181  23.828
1950.67  37.373  23.859
1951.17  37.309  23.859
1951.67  37.309  23.859
1952.17  37.309  23.859
1952.67  37.309  23.828
1953.17  37.309  23.859
1953.67  37.245  23.889
1954.17  37.373  23.859
1954.67  37.309  23.859
1955.17  37.437  23.889
1955.67  37.309  23.797
1956.17  37.309  23.859
1956.67  37.373  23.889
1957.17  37.309  23.859
1957.67  37.373  23.828
1958.17  37.309  23.828
1958.67  37.309  23.889
1959.17  37.309  23.828
1959.67  37.309  23.859
1960.17  37.309  23.859
1960.67  37.309  23.828
1961.17  37.309  23.828
1961.67  37.309  23.889
1962.17  37.309  23.859
1962.67  37.309  23.859
1963.17  37.309  23.859
1963.67  37.309  23.859
1964.17  37.245  23.859
1964.67  37.309  23.828
1965.17  37.309  23.889
1965.67  37.245  23.828
1966.17  37.373  23.828
1966.67  37.309  23.889
1967.17  37.437  23.889
1967.67  37.309  23.859
1968.17  37.309  23.859
1968.67  37.309  23.859
1969.17  37.309  23.859
1969.67  37.245  23.859
1970.17  37.309  23.859
1970.67  37.309  23.828
1971.17  37.309  23.889
1971.67  37.245  23.828
1972.17  37.309  23.889
1972.67  37.309  23.859
1973.17  37.309  23.859
1973.67  37.309  23.859
1974.17  37.373  23.889
1974.67  37.309  23.889
1975.17  37.373  23.859
1975.67  37.373  23.920
1976.17  37.309  23.859
1976.67  37.309  23.859
1977.17  37.373  23.859
1977.67  37.373  23.859
1978.17  37.309  23.859
1978.67  37.373  23.859
1979.17  37.309  23.859
1979.67  37.373  23.859
1980.17  37.373  23.889
1980.67  37.309  23.920
1981.17  37.309  23.889
1981.67  37.373  23.951
1982.18  37.373  23.859
1982.68  37.309  23.859
1983.18  37.309  23.828
1983.68  37.309  23.889
1984.18  37.309  23.828
1984.68  37.373  23.828
1985.18  37.309  23.859
1985.68  37.373  23.859
1986.18  37.309  23.859
1986.68  37.309  23.859
1987.18  37.309  23.828
1987.68  37.373  23.859
1988.18  37.373  23.828
1988.68  37.501  23.889
1989.18  37.373  23.859
1989.68  37.373  23.889
1990.18  37.373  23.828
1990.68  37.373  23.889
1991.18  37.437  23.859
1991.68  37.373  23.859
1992.18  37.373  23.828
1992.68  37.309  23.859
1993.18  37.373  23.828
1993.68  37.373  23.828
1994.18  37.309  23.889
1994.68  37.245  23.859
1995.18  37.309  23.859
1995.68  37.373  23.859
1996.18  37.373  23.889
1996.68  37.309  23.859
1997.18  37.309  23.889
1997.68  37.309  23.859
1998.18  37.373  23.828
1998.68  37.373  23.889
1999.18  37.373  23.859
1999.68  37.373  23.859
2000.18  37.309  23.828
2000.68  37.373  23.828
2001.18  37.373  23.889
2001.68  37.373  23.859
2002.18  37.309  23.859
2002.68  37.373  23.859
2003.18  37.309  23.859
2003.68  37.373  23.889
2004.18  37.373  23.859
2004.68  37.373  23.889
2005.18  37.309  23.859
2005.68  37.373  23.859
2006.18  37.373  23.859
2006.68  37.373  23.859
2007.18  37.373  23.859
2007.68  37.309  23.859
2008.18  37.373  23.859
2008.68  37.373  23.859
2009.18  37.309  23.828
2009.68  37.373  23.859
2010.18  37.437  23.920
2010.68  37.373  23.859
2011.18  37.437  23.859
2011.68  37.309  23.859
2012.18  37.373  23.859
2012.68  37.373  23.859
2013.18  37.373  23.859
2013.68  37.437  23.828
2014.18  37.373  23.859
2014.68  37.373  23.859
2015.18  37.373  23.859
2015.68  37.373  23.859
2016.18  37.309  23.859
2016.68  37.373  23.859
2017.18  37.373  23.828
2017.68  37.309  23.889
2018.18  37.309  23.859
2018.68  37.373  23.859
2019.18  37.373  23.889
2019.68  37.437  23.859
2020.18  37.309  23.859
2020.68  37.373  23.859
2021.18  37.373  23.828
2021.68  37.373  23.859
2022.18  37.373  23.859
2022.68  37.373  23.859
2023.18  37.437  23.859
2023.68  37.373  23.859
2024.18  37.373  23.889
2024.68  37.373  23.859
2025.18  37.373  23.859
2025.68  37.309  23.859
2026.18  37.373  23.889
2026.68  37.373  23.859
2027.18  37.437  23.828
2027.68  37.373  23.859
2028.18  37.373  23.889
2028.68  37.245  23.859
2029.18  37.437  23.828
2029.68  37.373  23.889
2030.18  37.373  23.889
2030.68  37.373  23.859
2031.18  37.437  23.859
2031.68  37.373  23.859
2032.18  37.437  23.859
2032.68  37.309  23.859
2033.18  37.373  23.859
2033.68  37.309  23.859
2034.18  37.245  23.859
2034.68  37.373  23.889
2035.18  37.501  23.889
2035.68  37.373  23.828
2036.18  37.437  23.889
2036.68  37.373  23.859
2037.18  37.373  23.859
2037.68  37.373  23.859
2038.18  37.373  23.889
2038.68  37.373  23.859
2039.18  37.373  23.889
2039.68  37.437  23.859
2040.18  37.501  23.859
2040.68  37.373  23.828
2041.18  37.373  23.828
2041.68  37.437  23.889
2042.18  37.373  23.889
2042.68  37.373  23.889
2043.18  37.373  23.889
2043.68  37.309  23.920
2044.18  37.373  23.889
2044.68  37.373  23.889
2045.18  37.309  23.859
2045.68  37.309  23.859
2046.18  37.373  23.859
2046.68  37.373  23.859
2047.18  37.373  23.859
2047.68  37.373  23.889
2048.18  37.373  23.859
2048.68  37.309  23.889
2049.18  37.373  23.859
2049.68  37.309  23.859
2050.18  37.309  23.766
2050.68  37.373  23.859
2051.18  37.309  23.889
2051.68  37.437  23.828
2052.18  37.373  23.859
2052.68  37.373  23.889
2053.18  37.373  23.859
2053.68  37.309  23.889
2054.18  37.373  23.889
2054.68  37.373  23.889
2055.18  37.437  23.889
2055.68  37.373  23.859
2056.18  37.373  23.859
2056.68  37.373  23.889
2057.18  37.501  23.828
2057.68  37.437  23.859
2058.18  37.501  23.859
2058.68  37.437  23.859
2059.18  37.437  23.859
2059.68  37.309  23.889
2060.18  37.373  23.889
2060.68  37.373  23.889
2061.18  37.437  23.859
2061.68  37.373  23.859
2062.18  37.501  23.920
2062.68  37.437  23.889
2063.18  37.437  23.889
2063.68  37.437  23.889
2064.18  37.437  23.889
2064.68  37.437  23.859
2065.18  37.309  23.889
2065.68  37.373  23.889
2066.18  37.437  23.859
2066.68  37.437  23.889
2067.18  37.437  23.889
2067.68  37.373  23.859
2068.18  37.373  23.859
2068.68  37.437  23.920
2069.18  37.437  23.859
2069.68  37.437  23.859
2070.18  37.437  23.889
2070.68  37.501  23.859
2071.18  37.373  23.889
2071.68  37.501  23.859
2072.18  37.373  23.859
2072.68  37.437  23.889
2073.18  37.437  23.951
2073.68  37.373  23.889
2074.18  37.437  23.889
2074.68  37.373  23.889
2075.18  37.309  23.889
2075.68  37.437  23.859
2076.18  37.437  23.859
2076.68  37.373  23.859
2077.18  37.437  23.889
2077.68  37.437  23.889
2078.18  37.309  23.859
2078.68  37.437  23.889
2079.18  37.437  23.859
2079.68  37.437  23.920
2080.18  37.437  23.889
2080.68  37.437  23.889
2081.18  37.437  23.859
2081.68  37.565  23.859
2082.18  37.437  23.859
2082.68  37.373  23.859
2083.18  37.501  23.889
2083.68  37.437  23.859
2084.18  37.373  23.828
2084.68  37.373  23.889
2085.18  37.501  23.889
2085.68  37.437  23.859
2086.18  37.437  23.889
2086.68  37.437  23.889
2087.18  37.373  23.889
2087.68  37.437  23.859
2088.18  37.437  23.889
2088.68  37.565  23.920
2089.18  37.437  23.889
2089.68  37.437  23.859
2090.18  37.501  23.889
2090.68  37.373  23.889
2091.18  37.437  23.889
2091.68  37.373  23.889
2092.18  37.373  23.889
2092.68  37.437  23.889
2093.18  37.437  23.859
2093.68  37.501  23.889
2094.18  37.501  23.859
2094.68  37.501  23.889
2095.19  37.373  23.889
2095.69  37.501  23.889
2096.19  37.437  23.859
2096.69  37.501  23.920
2097.19  37.373  23.889
2097.69  37.437  23.951
2098.19  37.437  23.889
2098.69  37.437  23.889
2099.19  37.501  23.889
2099.69  37.437  23.920
2100.19  37.437  23.920
2100.69  37.501  23.889
2101.19  37.501  23.889
2101.69  37.501  23.920
2102.19  37.501  23.920
2102.69  37.501  23.859
2103.19  37.437  23.920
2103.69  37.501  23.920
2104.19  37.437  23.889
2104.69  37.437  23.920
2105.19  37.437  23.859
2105.69  37.501  23.889
2106.19  37.437  23.889
2106.69  37.565  23.889
2107.19  37.437  23.920
2107.69  37.437  23.920
2108.19  37.565  23.889
2108.69  37.501  23.859
2109.19  37.501  23.859
2109.69  37.437  23.859
2110.19  37.501  23.859
2110.69  37.501  23.889
2111.19  37.437  23.889
2111.69  37.501  23.889
2112.19  37.437  23.889
2112.69  37.373  23.859
2113.19  37.437  23.859
2113.69  37.501  23.920
2114.19  37.437  23.889
2114.69  37.437  23.889
2115.19  37.501  23.859
2115.69  37.437  23.797
2116.19  37.437  23.889
2116.69  37.437  23.920
2117.19  37.373  23.889
2117.69  37.437  23.889
2118.19  37.437  23.920
2118.69  37.373  23.889
2119.19  37.501  23.920
2119.69  37.373  23.889
2120.19  37.501  23.920
2120.69  37.501  23.920
2121.19  37.501  23.920
2121.69  37.501  23.982
2122.19  37.437  23.889
2122.69  37.501  23.889
2123.19  37.373  23.920
2123.69  37.501  23.889
2124.19  37.501  23.920
2124.69  37.629  23.889
2125.19  37.501  23.889
2125.69  37.437  23.859
2126.19  37.565  23.920
2126.69  37.437  23.859
2127.19  37.501  23.920
2127.69  37.437  23.889
2128.19  37.501  23.951
2128.69  37.437  23.889
2129.19  37.501  23.889
2129.69  37.309  23.859
2130.19  37.373  23.889
2130.69  37.437  23.859
2131.19  37.437  23.889
2131.69  37.501  23.920
2132.19  37.437  23.920
2132.69  37.501  23.889
2133.19  37.501  23.889
2133.69  37.437  23.889
2134.19  37.437  23.920
2134.69  37.501  23.889
2135.19  37.501  23.920
2135.69  37.501  23.859
2136.19  37.501  23.889
2136.69  37.501  23.920
2137.19  37.373  23.889
2137.69  37.501  23.889
2138.19  37.373  23.889
2138.69  37.437  23.920
2139.19  37.437  23.889
2139.69  37.501  23.889
2140.19  37.501  23.920
2140.69  37.501  23.889
2141.19  37.501  23.889
2141.69  37.437  23.889
2142.19  37.565  23.889
2142.69  37.501  23.889
2143.19  37.501  23.889
2143.69  37.437  23.920
2144.19  37.501  23.920
2144.69  37.501  23.889
2145.19  37.501  23.859
2145.69  37.565  23.889
2146.19  37.565  23.951
2146.69  37.501  23.859
2147.19  37.501  23.889
2147.69  37.501  23.920
2148.19  37.501  23.920
2148.69  37.501  23.920
2149.19  37.501  23.889
2149.69  37.437  23.889
2150.19  37.501  23.920
2150.69  37.437  23.920
2151.19  37.501  23.889
2151.69  37.501  23.920
2152.19  37.501  23.889
2152.69  37.501  23.889
2153.19  37.437  23.889
2153.69  37.501  23.920
2154.19  37.501  23.920
2154.69  37.501  23.889
2155.19  37.501  23.889
2155.69  37.501  23.889
2156.19  37.501  23.889
2156.69  37.501  23.920
2157.19  37.565  23.920
2157.69  37.501  23.889
2158.19  37.501  23.889
2158.69  37.501  23.889
2159.19  37.565  23.920
2159.69  37.501  23.889
2160.19  37.501  23.920
2160.69  37.501  23.889
2161.19  37.565  23.889
2161.69  37.501  23.920
2162.19  37.501  23.889
2162.69  37.501  23.951
2163.19  37.437  23.920
2163.69  37.501  23.920
2164.19  37.501  23.889
2164.69  37.501  23.920
2165.19  37.565  23.920
2165.69  37.501  23.889
2166.19  37.565  23.920
2166.69  37.501  23.920
2167.19  37.437  23.889
2167.69  37.501  23.920
2168.19  37.501  23.889
2168.69  37.565  23.859
2169.19  37.501  23.920
2169.69  37.565  23.920
2170.19  37.501  23.920
2170.69  37.501  23.889
2171.19  37.501  23.920
2171.69  37.565  23.920
2172.19  37.565  23.859
2172.69  37.501  23.920
2173.19  37.565  23.920
2173.69  37.437  23.951
2174.19  37.437  23.920
2174.69  37.565  23.889
2175.19  37.565  23.889
2175.69  37.501  23.889
2176.19  37.565  23.889
2176.69  37.437  23.889
2177.19  37.437  23.889
2177.69  37.501  23.920
2178.19  37.501  23.920
2178.69  37.501  23.920
2179.19  37.501  23.920
2179.69  37.501  23.889
2180.19  37.501  23.920
2180.69  37.501  23.920
2181.19  37.501  23.951
2181.69  37.501  23.889
2182.19  37.437  23.889
2182.69  37.565  23.920
2183.19  37.501  23.920
2183.69  37.501  23.889
2184.19  37.565  23.889
2184.69  37.565  23.889
2185.19  37.501  23.920
2185.69  37.565  23.920
2186.19  37.501  23.889
2186.69  37.501  23.920
2187.19  37.501  23.920
2187.69  37.437  23.889
2188.19  37.565  23.889
2188.69  37.565  23.889
2189.19  37.501  23.889
2189.69  37.501  23.889
2190.19  37.501  23.859
2190.69  37.501  23.889
2191.19  37.437  23.920
2191.69  37.501  23.889
2192.19  37.437  23.889
2192.69  37.437  23.920
2193.19  37.437  23.951
2193.69  37.501  23.859
2194.19  37.437  23.920
2194.69  37.437  23.920
2195.19  37.437  23.920
2195.69  37.501  23.920
2196.19  37.565  23.889
2196.69  37.501  23.889
2197.19  37.565  23.889
2197.70  37.437  23.859
2198.20  37.501  23.920
2198.70  37.565  23.889
2199.20  37.437  23.920
2199.70  37.501  23.889
2200.20  37.501  23.920
2200.70  37.565  23.889
2201.20  37.501  23.920
2201.70  37.501  23.889
2202.20  37.501  23.920
2202.70  37.565  23.920
2203.20  37.501  23.889
2203.70  37.501  23.889
2204.20  37.565  23.920
2204.70  37.629  23.889
2205.20  37.501  23.889
2205.70  37.501  23.920
2206.20  37.565  23.920
2206.70  37.629  23.920
2207.20  37.501  23.889
2207.70  37.501  23.889
2208.20  37.565  23.889
2208.70  37.565  23.889
2209.20  37.565  23.920
2209.70  37.565  23.889
2210.20  37.565  23.920
2210.70  37.565  23.889
2211.20  37.565  23.889
2211.70  37.629  23.920
2212.20  37.565  23.859
2212.70  37.501  23.889
2213.20  37.629  23.982
2213.70  37.629  23.982
2214.20  37.501  23.951
2214.70  37.565  23.889
2215.20  37.629  23.889
2215.70  37.501  23.889
2216.20  37.565  23.920
2216.70  37.565  23.920
2217.20  37.565  23.920
2217.70  37.501  23.889
2218.20  37.565  23.920
2218.70  37.565  23.889
2219.20  37.565  23.920
2219.70  37.501  23.889
2220.20  37.501  23.889
2220.70  37.501  23.889
2221.20  37.501  23.889
2221.70  37.565  23.889
2222.20  37.501  23.920
2222.70  37.565  23.889
2223.20  37.501  23.889
2223.70  37.565  23.920
2224.20  37.565  23.920
2224.70  37.565  23.920
2225.20  37.565  23.859
2225.70  37.565  23.920
2226.20  37.565  23.951
2226.70  37.501  23.889
2227.20  37.565  23.920
2227.70  37.565  23.889
2228.20  37.565  23.920
2228.70  37.565  23.920
2229.20  37.565  23.889
2229.70  37.629  23.920
2230.20  37.565  23.889
2230.70  37.565  23.889
2231.20  37.565  23.982
2231.70  37.501  23.920
2232.20  37.565  23.920
2232.70  37.565  23.889
2233.20  37.629  23.889
2233.70  37.565  23.889
2234.20  37.565  23.920
2234.70  37.565  23.920
2235.20  37.565  23.920
2235.70  37.565  23.889
2236.20  37.565  23.920
2236.70  37.501  23.920
2237.20  37.565  23.920
2237.70  37.501  23.920
2238.20  37.565  23.889
2238.70  37.565  23.920
2239.20  37.565  23.920
2239.70  37.565  23.951
2240.20  37.501  23.889
2240.70  37.629  23.889
2241.20  37.565  23.951
2241.70  37.565  23.951
2242.20  37.565  23.951
2242.70  37.565  23.920
2243.20  37.565  23.951
2243.70  37.501  23.889
2244.20  37.629  23.920
2244.70  37.629  23.920
2245.20  37.565  23.920
2245.70  37.565  23.889
2246.20  37.565  23.889
2246.70  37.629  23.889
2247.20  37.565  23.889
2247.70  37.565  23.889
2248.20  37.565  23.920
2248.70  37.565  23.920
2249.20  37.629  23.920
2249.70  37.565  23.920
2250.20  37.565  23.920
2250.70  37.565  23.920
2251.20  37.501  23.920
2251.70  37.629  23.889
2252.20  37.565  23.920
2252.70  37.565  23.920
2253.20  37.565  23.920
2253.70  37.565  23.920
2254.20  37.565  23.920
2254.70  37.629  23.951
2255.20  37.629  23.920
2255.70  37.629  23.951
2256.20  37.629  23.951
2256.70  37.565  23.951
2257.20  37.693  23.920
2257.70  37.629  23.889
2258.20  37.629  23.920
2258.70  37.565  23.889
2259.20  37.565  23.920
2259.70  37.501  23.920
2260.20  37.629  23.920
2260.70  37.565  23.920
2261.20  37.629  23.920
2261.70  37.629  23.951
2262.20  37.565  23.982
2262.70  37.629  23.951
2263.20  37.693  23.920
2263.70  37.693  23.920
2264.20  37.629  23.889
2264.70  37.629  23.920
2265.20  37.565  23.920
2265.70  37.629  23.920
2266.20  37.501  23.951
2266.70  37.629  23.920
2267.20  37.629  23.920
2267.70  37.629  23.951
2268.20  37.501  23.951
2268.70  37.565  23.920
2269.20  37.693  23.920
2269.70  37.629  23.920
2270.20  37.565  23.920
2270.70  37.565  23.920
2271.20  37.565  23.951
2271.70  37.629  23.920
2272.20  37.565  23.951
2272.70  37.565  23.920
2273.20  37.565  23.859
2273.70  37.565  23.920
2274.20  37.629  23.920
2274.70  37.629  23.982
2275.20  37.565  23.920
2275.70  37.565  23.951
2276.20  37.629  23.920
2276.70  37.693  23.889
2277.20  37.565  23.920
2277.70  37.629  23.889
2278.20  37.629  23.920
2278.70  37.693  23.951
2279.20  37.565  23.951
2279.70  37.629  23.951
2280.20  37.565  23.920
2280.70  37.373  23.920
2281.20  37.565  23.951
2281.70  37.629  23.920
2282.20  37.693  23.920
2282.70  37.565  23.920
2283.20  37.629  23.951
2283.70  37.565  23.920
2284.20  37.693  23.951
2284.70  37.565  23.951
2285.20  37.565  23.951
2285.70  37.565  23.920
2286.20  37.565  23.920
2286.70  37.629  23.920
2287.20  37.629  23.920
2287.70  37.629  23.889
2288.20  37.565  23.920
2288.70  37.629  23.920
2289.20  37.565  23.920
2289.70  37.565  23.920
2290.20  37.565  23.920
2290.70  37.693  23.951
2291.20  37.629  23.889
2291.70  37.629  23.920
2292.20  37.629  23.920
2292.70  37.629  23.920
2293.20  37.693  23.920
2293.70  37.629  23.920
2294.20  37.629  23.920
2294.70  37.565  23.920
2295.20  37.565  23.920
2295.70  37.565  23.920
2296.20  37.565  23.859
2296.70  37.629  23.920
2297.20  37.629  23.951
2297.70  37.629  23.889
2298.20  37.629  23.951
2298.70  37.501  23.889
2299.20  37.629  23.951
2299.70  37.629  23.920
2300.20  37.629  23.920
2300.70  37.565  23.951
2301.20  37.693  23.951
2301.70  37.693  23.920
2302.20  37.693  23.951
2302.70  37.629  23.920
2303.20  37.629  23.920
2303.70  37.629  23.951
2304.20  37.629  23.951
2304.70  37.629  23.920
2305.20  37.757  23.889
2305.70  37.565  23.951
2306.20  37.629  23.951
2306.70  37.565  23.920
2307.20  37.693  23.951
2307.70  37.565  23.951
2308.20  37.693  23.920
2308.70  37.629  23.951
2309.20  37.629  23.920
2309.70  37.629  23.920
2310.20  37.629  23.951
2310.70  37.629  23.889
2311.20  37.629  23.859
2311.70  37.629  23.951
2312.20  37.629  23.889
2312.70  37.629  23.951
2313.20  37.629  23.920
2313.70  37.629  23.889
2314.20  37.501  23.982
2314.70  37.629  23.920
2315.20  37.629  23.889
2315.70  37.629  23.951
2316.20  37.629  23.982
2316.70  37.629  23.920
2317.20  37.629  23.951
2317.70  37.629  23.951
2318.20  37.757  23.951
2318.70  37.565  23.951
2319.20  37.629  23.920
2319.70  37.629  23.889
2320.20  37.629  23.920
2320.70  37.629  23.920
2321.20  37.629  23.889
2321.71  37.629  23.951
2322.21  37.629  23.951
2322.71  37.629  23.951
2323.21  37.629  23.920
2323.71  37.693  23.889
2324.21  37.629  23.951
2324.71  37.693  23.920
2325.21  37.629  23.951
2325.71  37.629  23.920
2326.21  37.693  23.951
2326.71  37.693  23.951
2327.21  37.693  23.951
2327.71  37.629  23.920
2328.21  37.693  23.951
2328.71  37.629  23.951
2329.21  37.629  23.920
2329.71  37.693  23.951
2330.21  37.629  23.951
2330.71  37.629  23.951
2331.21  37.629  23.920
2331.71  37.629  23.920
2332.21  37.629  23.951
2332.71  37.629  23.920
2333.21  37.693  23.982
2333.71  37.693  23.982
2334.21  37.565  23.951
2334.71  37.629  23.951
2335.21  37.757  23.951
2335.71  37.693  23.920
2336.21  37.565  23.920
2336.71  37.629  23.920
2337.21  37.565  23.920
2337.71  37.629  23.951
2338.21  37.629  23.982
2338.71  37.629  23.920
2339.21  37.693  23.951
2339.71  37.629  23.951
2340.21  37.629  23.951
2340.71  37.693  23.920
2341.21  37.693  23.951
2341.71  37.693  23.951
2342.21  37.629  23.951
2342.71  37.629  23.920
2343.21  37.693  23.920
2343.71  37.629  23.951
2344.21  37.693  23.920
2344.71  37.693  23.951
2345.21  37.565  23.920
2345.71  37.629  23.889
2346.21  37.629  23.951
2346.71  37.693  23.920
2347.21  37.693  23.889
2347.71  37.693  23.982
2348.21  37.693  23.982
2348.71  37.693  23.951
2349.21  37.629  23.951
2349.71  37.693  23.920
2350.21  37.693  23.951
2350.71  37.693  23.951
2351.21  37.693  23.920
2351.71  37.693  23.951
2352.21  37.629  23.920
2352.71  37.693  23.951
2353.21  37.629  23.920
2353.71  37.629  23.951
2354.21  37.629  23.920
2354.71  37.629  23.920
2355.21  37.757  23.920
2355.71  37.629  23.951
2356.21  37.693  23.920
2356.71  37.629  23.951
2357.21  37.629  23.951
2357.71  37.693  23.951
2358.21  37.693  23.920
2358.71  37.629  23.951
2359.21  37.629  23.920
2359.71  37.693  23.920
2360.21  37.629  23.920
2360.71  37.629  23.951
2361.21  37.693  23.920
2361.71  37.693  23.951
2362.21  37.693  24.013
2362.71  37.693  23.951
2363.21  37.757  23.951
2363.71  37.693  23.951
2364.21  37.629  23.920
2364.71  37.757  23.951
2365.21  37.693  23.951
2365.71  37.629  23.951
2366.21  37.693  23.951
2366.71  37.629  23.982
2367.21  37.693  23.920
2367.71  37.693  23.951
2368.21  37.693  23.951
2368.71  37.693  23.920
2369.21  37.693  23.951
2369.71  37.693  23.951
2370.21  37.501  23.920
2370.71  37.629  23.951
2371.21  37.693  23.951
2371.71  37.693  23.951
2372.21  37.693  23.920
2372.71  37.693  23.920
2373.21  37.693  23.920
2373.71  37.693  23.920
2374.21  37.629  23.920
2374.71  37.629  23.920
2375.21  37.693  23.951
2375.71  37.757  23.951
2376.21  37.629  23.982
2376.71  37.629  23.920
2377.21  37.629  23.951
2377.71  37.629  23.951
2378.21  37.693  23.889
2378.71  37.693  23.951
2379.21  37.629  23.920
2379.71  37.629  23.951
2380.21  37.629  23.951
2380.71  37.693  23.920
2381.21  37.693  23.920
2381.71  37.757  23.920
2382.21  37.693  23.920
2382.71  37.693  23.951
2383.21  37.629  23.951
2383.71  37.693  23.982
2384.21  37.757  23.920
2384.71  37.693  23.982
2385.21  37.693  23.951
2385.71  37.629  23.920
2386.21  37.757  23.920
2386.71  37.629  23.859
2387.21  37.693  23.951
2387.71  37.693  23.951
2388.21  37.629  23.951
2388.71  37.629  23.951
2389.21  37.693  23.920
2389.71  37.693  23.951
2390.21  37.693  23.920
2390.71  37.693  23.920
2391.21  37.693  23.951
2391.71  37.693  23.951
2392.21  37.693  23.920
2392.71  37.693  23.920
2393.21  37.693  23.951
2393.71  37.693  23.951
2394.21  37.629  23.951
2394.71  37.693  23.920
2395.21  37.757  23.951
2395.71  37.693  23.951
2396.21  37.629  23.920
2396.71  37.693  23.951
2397.21  37.757  23.920
2397.71  37.693  23.920
2398.21  37.693  23.951
2398.71  37.693  23.920
2399.21  37.693  23.920
2399.71  37.693  23.920
2400.21  37.693  23.982
2400.71  37.693  23.920
2401.21  37.757  23.951
2401.71  37.629  23.951
2402.21  37.757  23.982
2402.71  37.693  23.951
2403.21  37.693  23.951
2403.71  37.693  23.920
2404.21  37.629  23.920
2404.71  37.629  23.982
2405.21  37.693  23.951
2405.71  37.693  23.920
2406.21  37.693  23.982
2406.71  37.693  23.951
2407.21  37.565  23.951
2407.71  37.693  23.951
2408.21  37.757  23.982
2408.71  37.693  23.982
2409.21  37.693  23.951
2409.71  37.693  23.951
2410.21  37.821  23.951
2410.71  37.693  23.951
2411.21  37.757  23.982
2411.71  37.693  23.982
2412.21  37.757  23.951
2412.71  37.693  23.920
2413.21  37.629  23.920
2413.71  37.821  23.951
2414.21  37.629  23.920
2414.71  37.693  23.982
2415.21  37.757  23.920
2415.71  37.629  23.982
2416.21  37.757  23.982
2416.71  37.693  23.982
2417.21  37.693  23.951
2417.71  37.693  23.982
2418.21  37.693  23.982
2418.71  37.693  23.889
2419.21  37.693  23.951
2419.71  37.693  23.951
2420.21  37.693  23.920
2420.71  37.757  23.920
2421.21  37.693  23.951
2421.71  37.693  23.951
2422.21  37.757  23.951
2422.71  37.629  23.982
2423.21  37.693  23.951
2423.72  37.757  23.951
2424.22  37.757  23.920
2424.72  37.757  23.982
2425.22  37.693  23.982
2425.72  37.693  23.951
2426.22  37.757  23.951
2426.72  37.757  23.982
2427.22  37.757  23.951
2427.72  37.821  23.982
2428.22  37.693  23.951
2428.72  37.693  23.920
2429.22  37.693  24.013
2429.72  37.757  23.951
2430.22  37.757  23.951
2430.72  37.757  23.951
2431.22  37.757  24.013
2431.72  37.757  23.951
2432.22  37.757  23.951
2432.72  37.757  23.982
2433.22  37.629  23.951
2433.72  37.693  23.951
2434.22  37.693  23.951
2434.72  37.693  23.951
2435.22  37.693  23.951
2435.72  37.693  23.951
2436.22  37.757  23.951
2436.72  37.693  23.951
2437.22  37.757  23.951
2437.72  37.757  23.951
2438.22  37.757  23.951
2438.72  37.693  23.951
2439.22  37.693  23.920
2439.72  37.821  23.951
2440.22  37.629  23.951
2440.72  37.821  23.982
2441.22  37.757  23.982
2441.72  37.757  23.951
2442.22  37.757  23.982
2442.72  37.757  23.951
2443.22  37.693  23.982
2443.72  37.757  24.013
2444.22  37.757  23.951
2444.72  37.757  23.982
2445.22  37.821  23.982
2445.72  37.757  23.982
2446.22  37.757  23.982
2446.72  37.693  23.951
2447.22  37.757  23.920
2447.72  37.693  23.951
2448.22  37.757  24.013
2448.72  37.757  23.982
2449.22  37.757  23.951
2449.72  37.693  23.982
2450.22  37.821  23.982
2450.72  37.693  23.982
2451.22  37.757  23.982
2451.72  37.693  24.013
2452.22  37.693  23.920
2452.72  37.757  23.951
2453.22  37.757  23.982
2453.72  37.693  23.951
2454.22  37.693  24.043
2454.72  37.693  23.951
2455.22  37.693  23.982
2455.72  37.757  23.951
2456.22  37.757  23.951
2456.72  37.693  23.951
2457.22  37.693  23.982
2457.72  37.629  23.951
2458.22  37.693  23.982
2458.72  37.757  23.982
2459.22  37.757  23.951
2459.72  37.757  23.951
2460.22  37.757  23.982
2460.72  37.757  23.951
2461.22  37.757  23.920
2461.72  37.757  24.013
2462.22  37.757  23.920
2462.72  37.757  23.951
2463.22  37.693  23.951
2463.72  37.693  23.951
2464.22  37.693  23.982
2464.72  37.693  23.982
2465.22  37.693  23.951
2465.72  37.629  23.982
2466.22  37.757  23.951
2466.72  37.757  23.951
2467.22  37.757  23.920
2467.72  37.757  23.920
2468.22  37.757  23.920
2468.72  37.757  23.982
2469.22  37.757  23.951
2469.72  37.757  23.982
2470.22  37.757  23.951
2470.72  37.693  23.982
2471.22  37.821  23.889
2471.72  37.693  23.982
2472.22  37.757  23.951
2472.72  37.757  24.013
2473.22  37.757  23.951
2473.72  37.757  23.951
2474.22  37.821  23.920
2474.72  37.757  23.951
2475.22  37.693  23.951
2475.72  37.757  23.982
2476.22  37.757  23.982
2476.72  37.757  23.951
2477.22  37.693  23.982
2477.72  37.757  23.982
2478.22  37.757  23.982
2478.72  37.757  23.982
2479.22  37.693  23.951
2479.72  37.757  23.951
2480.22  37.821  23.982
2480.72  37.757  23.951
2481.22  37.693  23.951
2481.72  37.757  23.951
2482.22  37.757  23.951
2482.72  37.757  23.920
2483.22  37.757  23.951
2483.72  37.757  23.982
2484.22  37.821  23.982
2484.72  37.757  23.951
2485.22  37.821  23.982
2485.72  37.757  23.982
2486.22  37.757  23.951
2486.72  37.757  24.043
2487.22  37.757  24.013
2487.72  37.757  23.982
2488.22  37.757  23.982
2488.72  37.757  23.982
2489.22  37.757  23.951
2489.72  37.821  23.982
2490.22  37.757  23.920
2490.72  37.821  23.951
2491.22  37.821  23.982
2491.72  37.757  23.951
2492.22  37.757  23.951
2492.72  37.757  23.982
2493.22  37.757  23.920
2493.72  37.821  23.982
2494.22  37.757  24.043
2494.72  37.693  23.951
2495.22  37.821  23.982
2495.72  37.821  23.951
2496.22  37.693  23.982
2496.72  37.821  23.982
2497.22  37.757  23.982
2497.72  37.693  23.982
2498.22  37.693  23.982
2498.72  37.757  23.951
2499.22  37.821  23.951
2499.72  37.757  23.982
2500.22  37.757  23.982
2500.72  37.757  23.982
2501.22  37.757  24.013
2501.72  37.757  23.982
