   2.00  24.427  24.136
   2.50  24.401  24.136
   3.00  24.375  24.105
   3.50  24.401  24.167
   8.62  24.375  24.136
   9.12  24.375  24.136
   9.62  24.375  24.136
  10.12  24.375  24.105
  10.62  24.375  24.136
  11.12  24.401  24.136
  11.62  24.375  24.136
  12.12  24.348  24.136
  12.62  24.401  24.167
  13.12  24.401  24.105
  13.62  24.401  24.136
  14.12  24.348  24.136
  14.62  24.375  24.136
  15.12  24.375  24.136
  15.62  24.348  24.167
  16.12  24.375  24.136
  16.62  24.401  24.136
  17.12  24.375  24.167
  17.62  24.401  24.136
  18.12  24.401  24.136
  18.62  24.401  24.136
  19.12  24.401  24.074
  19.62  24.427  24.136
  20.12  24.427  24.167
  20.62  24.427  24.167
  21.12  24.401  24.136
  21.62  24.427  24.136
  22.12  24.453  24.167
  22.62  24.479  24.136
  23.12  24.453  24.136
  23.62  24.479  24.136
  24.12  24.531  24.136
  24.62  24.531  24.167
  25.12  24.531  24.136
  25.62  24.531  24.136
  26.12  24.583  24.136
  26.62  24.583  24.136
  27.12  24.583  24.136
  27.62  24.583  24.136
  28.12  24.636  24.136
  28.62  24.636  24.105
  29.12  24.662  24.167
  29.62  24.662  24.136
  30.12  24.714  24.136
  30.62  24.636  24.167
  31.12  24.714  24.167
  31.62  24.714  24.105
  32.12  24.740  24.136
  32.62  24.714  24.136
  33.12  24.740  24.136
  33.62  24.740  24.167
  34.12  24.766  24.167
  34.62  24.792  24.105
  35.12  24.819  24.167
  35.62  24.819  24.136
  36.12  24.819  24.105
  36.62  24.845  24.105
  37.12  24.845  24.167
  37.62  24.871  24.136
  38.12  24.897  24.136
  38.62  24.871  24.105
  39.12  24.949  24.136
  39.62  24.923  24.136
  40.12  24.949  24.136
  40.62  24.975  24.167
  41.12  24.975  24.105
  41.62  24.975  24.136
  42.12  24.975  24.105
  42.62  25.005  24.136
  43.12  24.975  24.136
  43.62  25.222  24.136
  44.12  25.114  24.136
  44.62  25.438  24.105
  45.12  25.222  24.136
  45.62  25.330  24.105
  46.12  25.330  24.136
  46.62  25.330  24.105
  47.12  25.222  24.105
  47.62  25.330  24.136
  48.12  25.547  24.167
  48.62  25.547  24.136
  49.12  25.438  24.167
  49.63  25.655  24.167
  50.13  25.547  24.167
  50.63  25.655  24.105
  51.13  25.655  24.136
  51.63  25.655  24.105
  52.13  25.655  24.136
  52.63  25.763  24.167
  53.13  25.655  24.136
  53.63  25.871  24.136
  54.13  25.871  24.136
  54.63  25.871  24.136
  55.13  25.871  24.136
  55.63  25.871  24.136
  56.13  26.088  24.136
  56.63  25.763  24.167
  57.13  25.980  24.136
  57.63  26.088  24.105
  58.13  26.304  24.136
  58.63  26.196  24.136
  59.13  26.196  24.167
  59.63  26.629  24.136
  60.13  26.196  24.167
  60.63  26.196  24.136
  61.13  26.196  24.136
  61.63  26.196  24.167
  62.13  26.196  24.136
  62.63  26.196  24.136
  63.13  26.413  24.136
  63.63  26.304  24.136
  64.13  26.413  24.105
  64.63  26.413  24.136
  65.13  26.521  24.136
  65.63  26.413  24.136
  66.13  26.304  24.136
  66.63  26.304  24.136
  67.13  26.521  24.136
  67.63  26.521  24.167
  68.13  26.521  24.136
  68.63  26.629  24.167
  69.13  26.629  24.136
  69.63  26.629  24.136
  70.13  26.629  24.167
  70.63  26.737  24.136
  71.13  26.521  24.136
  71.63  26.737  24.136
  72.13  26.846  24.167
  72.63  26.737  24.136
  73.13  26.954  24.167
  73.63  26.737  24.136
  74.13  26.737  24.136
  74.63  26.846  24.105
  75.13  26.737  24.105
  75.63  26.846  24.167
  76.13  26.846  24.136
  76.63  26.954  24.136
  77.13  26.954  24.167
  77.63  26.846  24.136
  78.13  27.062  24.136
  78.63  26.954  24.136
  79.13  26.954  24.105
  79.63  26.954  24.136
  80.13  27.062  24.136
  80.63  26.954  24.136
  81.13  27.062  24.136
  81.63  27.170  24.136
  82.13  27.170  24.167
  82.63  27.170  24.167
  83.13  27.170  24.167
  83.63  27.170  24.167
  84.13  26.954  24.167
  84.63  27.279  24.167
  85.13  27.279  24.105
  85.63  27.279  24.136
  86.13  27.170  24.136
  86.63  27.279  24.136
  87.13  27.279  24.136
  87.63  27.170  24.167
  88.13  27.170  24.167
  88.63  27.279  24.136
  89.13  27.279  24.136
  89.63  27.279  24.167
  90.13  27.279  24.167
  90.63  27.279  24.136
  91.13  27.495  24.167
  91.63  27.387  24.136
  92.13  27.495  24.167
  92.63  27.603  24.105
  93.13  27.495  24.167
  93.63  27.387  24.136
  94.13  27.603  24.167
  94.63  27.387  24.167
  95.13  27.603  24.167
  95.63  27.495  24.136
  96.13  27.495  24.136
  96.63  27.603  24.136
  97.13  27.495  24.105
  97.63  27.603  24.136
  98.13  27.495  24.167
  98.63  27.712  24.136
  99.13  27.603  24.167
  99.63  27.603  24.167
 100.13  27.712  24.167
 100.63  27.712  24.136
 101.13  27.603  24.136
 101.63  27.712  24.167
 102.13  27.712  24.167
 102.63  27.820  24.136
 103.13  27.820  24.167
 103.63  27.603  24.136
 104.13  27.712  24.136
 104.63  27.928  24.136
 105.13  27.820  24.167
 105.63  27.820  24.136
 106.13  28.036  24.167
 106.63  27.928  24.167
 107.13  27.928  24.167
 107.63  27.928  24.136
 108.13  27.928  24.167
 108.63  27.928  24.167
 109.13  27.820  24.167
 109.63  27.928  24.136
 110.13  28.036  24.167
 110.63  27.928  24.167
 111.13  27.820  24.136
 111.63  28.036  24.136
 112.13  27.928  24.136
 112.63  28.036  24.167
 113.13  27.928  24.136
 113.63  28.036  24.167
 114.13  28.253  24.136
 114.63  28.036  24.136
 115.13  27.928  24.167
 115.63  28.036  24.167
 116.13  28.036  24.136
 116.63  27.928  24.167
 117.13  28.036  24.105
 117.63  28.361  24.167
 118.13  28.036  24.167
 118.63  28.036  24.136
 119.13  28.145  24.167
 119.63  28.145  24.197
 120.13  28.145  24.167
 120.63  28.361  24.167
 121.13  28.253  24.167
 121.63  28.145  24.167
 122.13  28.253  24.167
 122.63  28.469  24.167
 123.13  28.253  24.074
 123.63  28.145  24.136
 124.13  28.361  24.167
 124.63  28.253  24.167
 125.13  28.145  24.167
 125.63  28.361  24.136
 126.13  28.253  24.167
 126.63  28.253  24.136
 127.13  28.145  24.136
 127.63  28.361  24.167
 128.13  28.361  24.136
 128.63  28.469  24.136
 129.13  28.361  24.167
 129.63  28.361  24.136
 130.13  28.361  24.167
 130.63  28.361  24.136
 131.13  28.361  24.167
 131.63  28.469  24.136
 132.13  28.686  24.167
 132.63  28.361  24.167
 133.13  28.578  24.167
 133.63  28.361  24.167
 134.13  28.469  24.167
 134.63  28.469  24.136
 135.13  28.578  24.167
 135.63  28.469  24.167
 136.13  28.469  24.136
 136.63  28.361  24.136
 137.13  28.469  24.167
 137.63  28.794  24.167
 138.13  28.578  24.167
 138.63  28.578  24.167
 139.13  28.578  24.136
 139.63  28.469  24.167
 140.13  28.578  24.136
 140.63  28.686  24.167
 141.13  28.578  24.197
 141.63  28.686  24.136
 142.13  28.469  24.136
 142.63  28.686  24.167
 143.13  28.578  24.197
 143.63  28.686  24.136
 144.13  28.686  24.136
 144.63  28.794  24.136
 145.13  28.794  24.105
 145.63  28.578  24.167
 146.13  28.794  24.136
 146.63  28.794  24.167
 147.13  28.686  24.136
 147.63  28.578  24.167
 148.13  28.686  24.167
 148.63  28.902  24.136
 149.13  28.902  24.197
 149.63  28.794  24.167
 150.13  28.686  24.136
 150.63  28.794  24.105
 151.13  28.794  24.167
 151.63  29.011  24.167
 152.13  28.794  24.136
 152.63  29.011  24.136
 153.13  28.902  24.167
 153.63  28.902  24.136
 154.13  28.902  24.136
 154.63  28.902  24.136
 155.13  29.011  24.167
 155.63  28.902  24.136
 156.13  28.902  24.197
 156.63  29.011  24.136
 157.13  29.011  24.167
 157.63  29.011  24.167
 158.13  29.011  24.136
 158.63  29.011  24.167
 159.13  29.011  24.167
 159.63  29.119  24.167
 160.13  29.119  24.167
 160.63  29.227  24.136
 161.13  29.011  24.197
 161.63  29.011  24.167
 162.13  29.011  24.167
 162.64  29.119  24.167
 163.14  29.119  24.167
 163.64  29.011  24.136
 164.14  28.902  24.197
 164.64  29.119  24.167
 165.14  29.227  24.136
 165.64  29.119  24.197
 166.14  29.335  24.167
 166.64  29.227  24.136
 167.14  29.227  24.167
 167.64  29.227  24.167
 168.14  29.119  24.167
 168.64  29.335  24.136
 169.14  29.227  24.228
 169.64  29.227  24.167
 170.14  29.011  24.167
 170.64  29.119  24.197
 171.14  29.227  24.167
 171.64  29.227  24.167
 172.14  29.227  24.167
 172.64  29.227  24.228
 173.14  29.227  24.167
 173.64  29.444  24.136
 174.14  29.227  24.167
 174.64  29.227  24.197
 175.14  29.335  24.197
 175.64  29.335  24.136
 176.14  29.335  24.136
 176.64  29.335  24.167
 177.14  29.444  24.167
 177.64  29.335  24.167
 178.14  29.335  24.167
 178.64  29.335  24.136
 179.14  29.335  24.167
 179.64  29.444  24.167
 180.14  29.444  24.167
 180.64  29.660  24.167
 181.14  29.444  24.167
 181.64  29.444  24.136
 182.14  29.444  24.197
 182.64  29.444  24.197
 183.14  29.552  24.167
 183.64  29.552  24.197
 184.14  29.552  24.136
 184.64  29.552  24.136
 185.14  29.552  24.167
 185.64  29.444  24.167
 186.14  29.552  24.197
 186.64  29.552  24.197
 187.14  29.444  24.167
 187.64  29.444  24.197
 188.14  29.552  24.167
 188.64  29.552  24.197
 189.14  29.552  24.197
 189.64  29.552  24.167
 190.14  29.660  24.197
 190.64  29.552  24.167
 191.14  29.552  24.167
 191.64  29.552  24.167
 192.14  29.660  24.167
 192.64  29.660  24.167
 193.14  29.660  24.167
 193.64  29.552  24.167
 194.14  29.552  24.167
 194.64  29.660  24.197
 195.14  29.552  24.136
 195.64  29.660  24.197
 196.14  29.768  24.167
 196.64  29.660  24.167
 197.14  29.660  24.167
 197.64  29.660  24.167
 198.14  29.660  24.136
 198.64  29.768  24.167
 199.14  29.660  24.167
 199.64  29.660  24.167
 200.14  29.768  24.167
 200.64  29.660  24.167
 201.14  29.877  24.167
 201.64  29.660  24.197
 202.14  29.768  24.197
 202.64  29.877  24.167
 203.14  29.660  24.167
 203.64  29.660  24.136
 204.14  29.768  24.167
 204.64  29.660  24.167
 205.14  29.877  24.167
 205.64  29.768  24.167
 206.14  29.768  24.105
 206.64  29.660  24.197
 207.14  29.768  24.167
 207.64  29.768  24.167
 208.14  29.768  24.167
 208.64  29.877  24.197
 209.14  29.877  24.197
 209.64  29.877  24.167
 210.14  29.877  24.136
 210.64  29.768  24.197
 211.14  29.768  24.167
 211.64  29.877  24.197
 212.14  29.768  24.136
 212.64  29.877  24.167
 213.14  30.101  24.167
 213.64  29.877  24.167
 214.14  29.877  24.167
 214.64  29.985  24.167
 215.14  29.985  24.197
 215.64  29.877  24.167
 216.14  29.985  24.167
 216.64  29.985  24.197
 217.14  29.985  24.197
 217.64  29.985  24.167
 218.14  29.985  24.167
 218.64  29.985  24.197
 219.14  30.101  24.167
 219.64  29.768  24.167
 220.14  29.985  24.197
 220.64  30.101  24.136
 221.14  30.101  24.197
 221.64  30.101  24.136
 222.14  30.101  24.167
 222.64  30.101  24.167
 223.14  30.101  24.167
 223.64  30.217  24.167
 224.14  30.217  24.197
 224.64  30.217  24.197
 225.14  30.101  24.167
 225.64  30.217  24.167
 226.14  30.101  24.197
 226.64  30.101  24.167
 227.14  30.101  24.197
 227.64  30.217  24.167
 228.14  30.101  24.167
 228.64  30.101  24.197
 229.14  30.217  24.167
 229.64  30.334  24.167
 230.14  30.334  24.167
 230.64  30.451  24.167
 231.14  30.101  24.197
 231.64  30.101  24.197
 232.14  30.217  24.167
 232.64  30.101  24.167
 233.14  30.217  24.197
 233.64  30.217  24.197
 234.14  30.334  24.197
 234.64  30.217  24.167
 235.14  30.334  24.197
 235.64  30.217  24.167
 236.14  30.568  24.167
 236.64  30.217  24.167
 237.14  30.101  24.197
 237.64  30.217  24.167
 238.14  30.334  24.167
 238.64  30.217  24.197
 239.14  30.334  24.167
 239.64  30.217  24.167
 240.14  30.451  24.167
 240.64  30.217  24.197
 241.14  30.334  24.167
 241.64  30.334  24.197
 242.14  30.334  24.167
 242.64  30.217  24.197
 243.14  30.217  24.197
 243.64  30.334  24.197
 244.14  30.334  24.167
 244.64  30.568  24.136
 245.14  30.334  24.136
 245.64  30.451  24.167
 246.14  30.451  24.136
 246.64  30.451  24.167
 247.14  30.101  24.167
 247.64  30.451  24.136
 248.14  30.568  24.167
 248.64  30.217  24.167
 249.14  30.568  24.197
 249.64  30.568  24.167
 250.14  30.568  24.167
 250.64  30.568  24.167
 251.14  30.334  24.197
 251.64  30.451  24.167
 252.14  30.451  24.228
 252.64  30.451  24.259
 253.14  30.568  24.197
 253.64  30.802  24.167
 254.14  30.451  24.197
 254.64  30.568  24.197
 255.14  30.568  24.136
 255.64  30.568  24.167
 256.14  30.451  24.167
 256.64  30.685  24.167
 257.14  30.451  24.167
 257.64  30.568  24.167
 258.14  30.451  24.197
 258.64  30.568  24.167
 259.14  30.568  24.167
 259.64  30.451  24.197
 260.14  30.568  24.197
 260.64  30.685  24.167
 261.14  30.568  24.197
 261.64  30.568  24.167
 262.14  30.451  24.167
 262.64  30.568  24.167
 263.14  30.685  24.197
 263.64  30.685  24.197
 264.14  30.685  24.197
 264.64  30.451  24.197
 265.14  30.685  24.197
 265.64  30.568  24.136
 266.14  30.685  24.136
 266.64  30.685  24.197
 267.14  30.685  24.167
 267.64  30.568  24.197
 268.14  30.685  24.197
 268.64  30.802  24.167
 269.14  30.685  24.167
 269.64  30.685  24.259
 270.14  30.685  24.167
 270.64  30.685  24.167
 271.14  30.802  24.197
 271.64  30.802  24.197
 272.14  30.802  24.167
 272.64  30.685  24.197
 273.14  30.802  24.197
 273.64  30.919  24.167
 274.14  30.802  24.167
 274.64  31.036  24.197
 275.14  30.685  24.197
 275.64  30.802  24.197
 276.15  30.802  24.197
 276.65  30.919  24.197
 277.15  30.802  24.197
 277.65  30.802  24.167
 278.15  30.802  24.167
 278.65  30.802  24.228
 279.15  30.919  24.167
 279.65  30.802  24.167
 280.15  30.802  24.197
 280.65  30.802  24.167
 281.15  30.802  24.228
 281.65  30.802  24.197
 282.15  30.919  24.197
 282.65  31.036  24.167
 283.15  30.802  24.167
 283.65  30.919  24.167
 284.15  30.919  24.197
 284.65  30.919  24.197
 285.15  30.802  24.197
 285.65  30.802  24.167
 286.15  30.919  24.167
 286.65  30.919  24.167
 287.15  30.919  24.167
 287.65  31.036  24.197
 288.15  30.802  24.197
 288.65  30.919  24.167
 289.15  30.919  24.167
 289.65  30.919  24.197
 290.15  30.919  24.167
 290.65  31.036  24.167
 291.15  30.919  24.167
 291.65  31.036  24.167
 292.15  31.036  24.197
 292.65  31.036  24.167
 293.15  31.036  24.197
 293.65  30.802  24.197
 294.15  30.919  24.197
 294.65  31.036  24.167
 295.15  30.919  24.197
 295.65  31.036  24.167
 296.15  31.036  24.167
 296.65  30.919  24.197
 297.15  31.036  24.167
 297.65  31.036  24.167
 298.15  30.919  24.197
 298.65  31.269  24.167
 299.15  31.036  24.197
 299.65  31.036  24.167
 300.15  31.036  24.167
 300.65  31.269  24.197
 301.15  30.919  24.167
 301.65  31.036  24.167
 302.15  31.152  24.136
 302.65  31.036  24.167
 303.15  31.152  24.197
 303.65  31.036  24.197
 304.15  31.152  24.197
 304.65  31.036  24.197
 305.15  31.386  24.197
 305.65  31.269  24.259
 306.15  31.036  24.197
 306.65  31.152  24.197
 307.15  31.036  24.167
 307.65  31.269  24.167
 308.15  31.152  24.167
 308.65  31.152  24.197
 309.15  31.269  24.167
 309.65  31.269  24.136
 310.15  31.269  24.197
 310.65  31.269  24.228
 311.15  31.152  24.136
 311.65  31.269  24.197
 312.15  31.269  24.197
 312.65  31.269  24.167
 313.15  31.269  24.167
 313.65  31.269  24.167
 314.15  31.152  24.167
 314.65  31.269  24.167
 315.15  31.269  24.167
 315.65  31.620  24.197
 316.15  31.269  24.197
 316.65  31.152  24.197
 317.15  31.269  24.197
 317.65  31.152  24.197
 318.15  31.152  24.197
 318.65  31.386  24.197
 319.15  31.386  24.197
 319.65  31.386  24.167
 320.15  31.386  24.167
 320.65  31.269  24.197
 321.15  31.386  24.167
 321.65  31.386  24.167
 322.15  31.269  24.167
 322.65  31.386  24.197
 323.15  31.386  24.167
 323.65  31.152  24.197
 324.15  31.386  24.197
 324.65  31.269  24.197
 325.15  31.386  24.197
 325.65  31.386  24.197
 326.15  31.503  24.197
 326.65  31.503  24.197
 327.15  31.620  24.197
 327.65  31.503  24.197
 328.15  31.386  24.167
 328.65  31.386  24.167
 329.15  31.386  24.197
 329.65  31.386  24.197
 330.15  31.620  24.167
 330.65  31.503  24.197
 331.15  31.386  24.167
 331.65  31.269  24.167
 332.15  31.620  24.197
 332.65  31.503  24.167
 333.15  31.386  24.167
 333.65  31.386  24.197
 334.15  31.503  24.197
 334.65  31.503  24.197
 335.15  31.620  24.197
 335.65  31.620  24.197
 336.15  31.386  24.197
 336.65  31.503  24.197
 337.15  31.269  24.167
 337.65  31.503  24.228
 338.15  31.503  24.197
 338.65  31.620  24.167
 339.15  31.386  24.167
 339.65  31.503  24.167
 340.15  31.620  24.197
 340.65  31.503  24.167
 341.15  31.503  24.197
 341.65  31.503  24.197
 342.15  31.503  24.167
 342.65  31.620  24.197
 343.15  31.386  24.167
 343.65  31.503  24.197
 344.15  31.503  24.167
 344.65  31.503  24.167
 345.15  31.386  24.167
 345.65  31.620  24.167
 346.15  31.620  24.167
 346.65  31.503  24.167
 347.15  31.503  24.167
 347.65  31.737  24.136
 348.15  31.620  24.105
 348.65  31.737  24.197
 349.15  31.620  24.167
 349.65  31.737  24.197
 350.15  31.503  24.228
 350.65  31.620  24.197
 351.15  31.620  24.228
 351.65  31.620  24.167
 352.15  31.854  24.197
 352.65  31.854  24.197
 353.15  31.620  24.197
 353.65  31.620  24.167
 354.15  31.620  24.197
 354.65  31.737  24.197
 355.15  31.620  24.167
 355.65  31.737  24.197
 356.15  31.620  24.228
 356.65  31.854  24.197
 357.15  31.737  24.167
 357.65  31.854  24.167
 358.15  31.737  24.197
 358.65  31.737  24.197
 359.15  31.854  24.228
 359.65  31.737  24.167
 360.15  31.737  24.167
 360.65  31.854  24.197
 361.15  31.854  24.228
 361.65  31.854  24.197
 362.15  31.737  24.228
 362.65  31.854  24.197
 363.15  31.854  24.197
 363.65  31.854  24.167
 364.15  31.971  24.136
 364.65  31.854  24.197
 365.15  31.971  24.197
 365.65  31.854  24.167
 366.15  31.737  24.167
 366.65  31.737  24.197
 367.15  31.737  24.197
 367.65  31.854  24.197
 368.15  31.737  24.197
 368.65  31.854  24.228
 369.15  31.737  24.228
 369.65  31.971  24.197
 370.15  31.854  24.228
 370.65  31.854  24.197
 371.15  31.854  24.197
 371.65  31.854  24.167
 372.15  31.737  24.167
 372.65  31.854  24.197
 373.15  31.737  24.197
 373.65  31.854  24.167
 374.15  31.854  24.197
 374.65  31.971  24.167
 375.15  31.737  24.197
 375.65  31.737  24.167
 376.15  31.971  24.167
 376.65  31.854  24.197
 377.15  31.620  24.197
 377.65  31.854  24.197
 378.15  31.854  24.167
 378.65  31.971  24.167
 379.15  31.971  24.167
 379.65  31.971  24.197
 380.15  31.971  24.197
 380.65  31.971  24.167
 381.15  31.971  24.197
 381.65  31.854  24.228
 382.15  31.971  24.197
 382.65  32.087  24.167
 383.15  31.854  24.197
 383.65  31.971  24.167
 384.15  32.087  24.167
 384.65  31.971  24.197
 385.15  32.087  24.197
 385.65  32.087  24.197
 386.15  32.087  24.167
 386.65  31.854  24.197
 387.15  31.971  24.167
 387.65  32.087  24.167
 388.15  31.620  24.197
 388.65  31.971  24.197
 389.16  32.087  24.197
 389.66  31.971  24.197
 390.16  31.971  24.167
 390.66  32.204  24.167
 391.16  32.087  24.228
 391.66  32.087  24.167
 392.16  32.204  24.197
 392.66  32.321  24.197
 393.16  32.087  24.167
 393.66  32.204  24.197
 394.16  32.204  24.197
 394.66  32.087  24.197
 395.16  32.087  24.197
 395.66  31.971  24.167
 396.16  31.971  24.167
 396.66  32.087  24.197
 397.16  32.087  24.197
 397.66  31.854  24.197
 398.16  32.204  24.197
 398.66  32.087  24.167
 399.16  31.854  24.197
 399.66  32.087  24.167
 400.16  32.204  24.197
 400.66  32.204  24.167
 401.16  32.204  24.167
 401.66  32.204  24.197
 402.16  32.087  24.228
 402.66  32.204  24.167
 403.16  32.204  24.197
 403.66  32.204  24.197
 404.16  32.087  24.197
 404.66  32.321  24.228
 405.16  31.971  24.197
 405.66  32.321  24.167
 406.16  31.971  24.197
 406.66  32.087  24.197
 407.16  32.204  24.228
 407.66  32.087  24.167
 408.16  32.204  24.259
 408.66  32.321  24.197
 409.16  32.204  24.167
 409.66  32.321  24.197
 410.16  32.204  24.167
 410.66  32.321  24.136
 411.16  32.321  24.197
 411.66  32.204  24.197
 412.16  32.204  24.197
 412.66  32.321  24.136
 413.16  32.204  24.197
 413.66  32.204  24.167
 414.16  32.321  24.197
 414.66  32.321  24.197
 415.16  32.204  24.197
 415.66  32.204  24.197
 416.16  32.204  24.167
 416.66  32.438  24.259
 417.16  32.321  24.228
 417.66  32.321  24.197
 418.16  32.321  24.167
 418.66  32.204  24.167
 419.16  32.438  24.197
 419.66  32.204  24.197
 420.16  32.204  24.197
 420.66  32.321  24.167
 421.16  32.321  24.167
 421.66  32.438  24.228
 422.16  32.204  24.197
 422.66  32.321  24.197
 423.16  32.321  24.228
 423.66  32.204  24.197
 424.16  32.321  24.197
 424.66  32.321  24.197
 425.16  32.087  24.197
 425.66  32.321  24.197
 426.16  32.438  24.197
 426.66  32.321  24.228
 427.16  32.321  24.167
 427.66  32.321  24.197
 428.16  32.321  24.228
 428.66  32.321  24.167
 429.16  32.321  24.167
 429.66  32.438  24.228
 430.16  32.438  24.167
 430.66  32.672  24.197
 431.16  32.438  24.167
 431.66  32.438  24.197
 432.16  32.438  24.197
 432.66  32.438  24.167
 433.16  32.438  24.167
 433.66  32.438  24.197
 434.16  32.321  24.197
 434.66  32.438  24.197
 435.16  32.321  24.197
 435.66  32.438  24.197
 436.16  32.438  24.197
 436.66  32.438  24.197
 437.16  32.438  24.197
 437.66  32.321  24.167
 438.16  32.321  24.197
 438.66  32.438  24.167
 439.16  32.555  24.197
 439.66  32.438  24.228
 440.16  32.555  24.197
 440.66  32.438  24.197
 441.16  32.321  24.197
 441.66  32.555  24.197
 442.16  32.438  24.197
 442.66  32.555  24.197
 443.16  32.555  24.197
 443.66  32.438  24.228
 444.16  32.555  24.167
 444.66  32.438  24.197
 445.16  32.555  24.167
 445.66  32.438  24.197
 446.16  32.555  24.228
 446.66  32.555  24.228
 447.16  32.555  24.167
 447.66  32.672  24.228
 448.16  32.672  24.167
 448.66  32.672  24.197
 449.16  32.555  24.197
 449.66  32.438  24.197
 450.16  32.555  24.197
 450.66  32.321  24.197
 451.16  32.672  24.197
 451.66  32.555  24.167
 452.16  32.555  24.197
 452.66  32.672  24.197
 453.16  32.555  24.197
 453.66  32.555  24.197
 454.16  32.555  24.228
 454.66  32.321  24.197
 455.16  32.672  24.197
 455.66  32.555  24.197
 456.16  32.555  24.197
 456.66  32.555  24.197
 457.16  32.555  24.197
 457.66  32.555  24.167
 458.16  32.555  24.167
 458.66  32.672  24.197
 459.16  32.789  24.197
 459.66  32.672  24.228
 460.16  32.672  24.259
 460.66  32.789  24.136
 461.16  32.672  24.197
 461.66  32.672  24.197
 462.16  32.672  24.197
 462.66  33.022  24.197
 463.16  32.672  24.197
 463.66  32.672  24.197
 464.16  32.555  24.197
 464.66  32.672  24.167
 465.16  32.672  24.197
 465.66  32.555  24.197
 466.16  32.555  24.197
 466.66  32.789  24.197
 467.16  32.672  24.167
 467.66  32.789  24.197
 468.16  32.555  24.197
 468.66  32.672  24.197
 469.16  32.789  24.197
 469.66  32.789  24.228
 470.16  32.789  24.197
 470.66  32.672  24.197
 471.16  32.672  24.197
 471.66  32.789  24.197
 472.16  32.555  24.228
 472.66  32.672  24.197
 473.16  32.789  24.197
 473.66  32.789  24.197
 474.16  32.672  24.197
 474.66  32.789  24.197
 475.16  32.789  24.197
 475.66  32.789  24.197
 476.16  32.906  24.197
 476.66  32.789  24.197
 477.16  32.789  24.167
 477.66  32.906  24.197
 478.16  32.789  24.197
 478.66  32.789  24.197
 479.16  32.789  24.228
 479.66  32.906  24.167
 480.16  32.906  24.197
 480.66  32.789  24.197
 481.16  32.789  24.228
 481.66  32.906  24.167
 482.16  32.906  24.167
 482.66  32.789  24.197
 483.16  32.789  24.197
 483.66  32.906  24.197
 484.16  32.789  24.197
 484.66  32.672  24.197
 485.16  32.906  24.197
 485.66  33.022  24.197
 486.16  33.022  24.197
 486.66  32.906  24.197
 487.16  32.906  24.167
 487.66  32.789  24.197
 488.16  32.906  24.197
 488.66  32.789  24.228
 489.16  32.789  24.228
 489.66  32.789  24.167
 490.16  33.022  24.228
 490.66  32.906  24.197
 491.17  33.022  24.197
 491.67  32.906  24.197
 492.17  32.789  24.197
 492.67  32.789  24.197
 493.17  32.906  24.228
 493.67  32.906  24.228
 494.17  32.906  24.197
 494.67  32.906  24.228
 495.17  32.906  24.167
 495.67  32.906  24.197
 496.17  32.906  24.197
 496.67  32.906  24.197
 497.17  32.789  24.167
 497.67  33.022  24.197
 498.17  32.906  24.197
 498.67  33.022  24.167
 499.17  33.022  24.197
 499.67  33.022  24.197
 500.17  32.906  24.197
 500.67  33.022  24.197
 501.17  33.022  24.197
 501.67  32.789  24.167
 502.17  33.022  24.197
 502.67  33.022  24.167
 503.17  33.022  24.167
 503.67  33.022  24.197
 504.17  33.022  24.228
 504.67  33.022  24.197
 505.17  33.022  24.197
 505.67  33.022  24.228
 506.17  33.022  24.197
 506.67  33.022  24.228
 507.17  33.022  24.167
 507.67  32.906  24.197
 508.17  33.022  24.228
 508.67  33.022  24.197
 509.17  32.906  24.228
 509.67  33.022  24.197
 510.17  33.139  24.197
 510.67  33.022  24.197
 511.17  33.022  24.197
 511.67  32.906  24.197
 512.17  33.022  24.197
 512.67  33.139  24.197
 513.17  33.139  24.197
 513.67  33.256  24.197
 514.17  33.022  24.197
 514.67  33.022  24.197
 515.17  33.022  24.197
 515.67  33.139  24.228
 516.17  33.139  24.167
 516.67  33.022  24.167
 517.17  33.022  24.197
 517.67  33.022  24.197
 518.17  33.022  24.197
 518.67  33.139  24.197
 519.17  33.022  24.228
 519.67  33.022  24.167
 520.17  33.139  24.228
 520.67  33.022  24.197
 521.17  33.139  24.228
 521.67  33.139  24.228
 522.17  33.139  24.197
 522.67  33.139  24.197
 523.17  33.022  24.197
 523.67  33.022  24.228
 524.17  33.022  24.197
 524.67  33.022  24.228
 525.17  33.139  24.167
 525.67  33.139  24.197
 526.17  33.139  24.197
 526.67  33.139  24.197
 527.17  33.022  24.197
 527.67  33.139  24.167
 528.17  33.022  24.197
 528.67  33.139  24.197
 529.17  33.139  24.228
 529.67  33.256  24.197
 530.17  33.139  24.197
 530.67  33.139  24.197
 531.17  33.256  24.197
 531.67  33.256  24.167
 532.17  33.256  24.197
 532.67  33.139  24.167
 533.17  33.256  24.197
 533.67  33.139  24.259
 534.17  33.256  24.197
 534.67  33.139  24.197
 535.17  33.373  24.197
 535.67  33.256  24.167
 536.17  33.256  24.228
 536.67  33.256  24.167
 537.17  32.906  24.197
 537.67  33.256  24.167
 538.17  33.490  24.197
 538.67  33.139  24.197
 539.17  33.256  24.197
 539.67  33.139  24.197
 540.17  33.256  24.197
 540.67  33.256  24.197
 541.17  33.490  24.167
 541.67  33.022  24.197
 542.17  33.256  24.197
 542.67  33.256  24.228
 543.17  33.256  24.228
 543.67  33.256  24.197
 544.17  32.906  24.167
 544.67  33.373  24.228
 545.17  33.139  24.197
 545.67  33.373  24.197
 546.17  33.373  24.197
 546.67  33.256  24.197
 547.17  33.139  24.197
 547.67  33.256  24.228
 548.17  33.256  24.228
 548.67  33.373  24.197
 549.17  33.373  24.197
 549.67  33.256  24.197
 550.17  33.373  24.197
 550.67  33.373  24.167
 551.17  33.373  24.197
 551.67  33.139  24.228
 552.17  33.256  24.197
 552.67  33.256  24.228
 553.17  33.139  24.228
 553.67  33.373  24.197
 554.17  33.373  24.167
 554.67  33.373  24.197
 555.17  33.373  24.197
 555.67  33.490  24.259
 556.17  33.373  24.197
 556.67  33.256  24.197
 557.17  33.490  24.228
 557.67  33.256  24.197
 558.17  33.490  24.197
 558.67  33.373  24.197
 559.17  33.256  24.259
 559.67  33.256  24.228
 560.17  33.373  24.197
 560.67  33.373  24.197
 561.17  33.373  24.197
 561.67  33.373  24.197
 562.17  33.490  24.197
 562.67  33.373  24.197
 563.17  33.256  24.197
 563.67  33.607  24.167
 564.17  33.490  24.197
 564.67  33.490  24.197
 565.17  33.373  24.197
 565.67  33.373  24.197
 566.17  33.373  24.197
 566.67  33.490  24.197
 567.17  33.490  24.228
 567.67  33.490  24.197
 568.17  33.607  24.197
 568.67  33.373  24.197
 569.17  33.607  24.197
 569.67  33.373  24.228
 570.17  33.490  24.197
 570.67  33.373  24.197
 571.17  33.490  24.228
 571.67  33.373  24.228
 572.17  33.490  24.197
 572.67  33.373  24.197
 573.17  33.490  24.228
 573.67  33.490  24.228
 574.17  33.373  24.228
 574.67  33.490  24.197
 575.17  33.373  24.228
 575.67  33.373  24.197
 576.17  33.490  24.259
 576.67  33.490  24.259
 577.17  33.490  24.228
 577.67  33.490  24.228
 578.17  33.490  24.197
 578.67  33.373  24.197
 579.17  33.490  24.228
 579.67  33.607  24.197
 580.17  33.490  24.228
 580.67  33.490  24.197
 581.17  33.490  24.197
 581.67  33.490  24.228
 582.17  33.490  24.197
 582.67  33.490  24.228
 583.17  33.490  24.197
 583.67  33.373  24.197
 584.17  33.490  24.228
 584.67  33.490  24.228
 585.17  33.724  24.228
 585.67  33.607  24.197
 586.17  33.490  24.197
 586.67  33.490  24.197
 587.17  33.607  24.259
 587.67  33.607  24.197
 588.17  33.490  24.228
 588.67  33.607  24.228
 589.17  33.490  24.197
 589.67  33.607  24.197
 590.17  33.256  24.197
 590.67  33.607  24.228
 591.17  33.607  24.197
 591.67  33.607  24.197
 592.17  33.490  24.197
 592.67  33.607  24.197
 593.17  33.490  24.197
 593.67  33.607  24.167
 594.17  33.607  24.197
 594.67  33.724  24.228
 595.17  33.607  24.228
 595.67  33.607  24.197
 596.17  33.607  24.197
 596.67  33.607  24.228
 597.17  33.607  24.228
 597.67  33.490  24.228
 598.17  33.724  24.167
 598.67  33.841  24.228
 599.17  33.724  24.228
 599.67  33.957  24.228
 600.17  33.724  24.228
 600.67  33.607  24.228
 601.17  33.607  24.228
 601.67  33.724  24.228
 602.17  33.724  24.228
 602.67  33.841  24.228
 603.17  33.841  24.228
 603.67  33.607  24.228
 604.17  33.607  24.197
 604.67  33.724  24.228
 605.17  33.724  24.197
 605.67  33.607  24.197
 606.17  33.724  24.197
 606.67  33.724  24.228
 607.17  33.607  24.228
 607.67  33.724  24.197
 608.17  33.724  24.197
 608.67  33.724  24.228
 609.17  33.607  24.228
 609.67  33.724  24.228
 610.17  33.724  24.228
 610.67  33.724  24.228
 611.17  33.841  24.197
 611.67  33.724  24.197
 612.17  33.607  24.197
 612.67  33.607  24.228
 613.17  33.607  24.197
 613.67  33.724  24.197
 614.17  33.724  24.167
 614.67  33.724  24.259
 615.17  33.724  24.259
 615.68  33.724  24.136
 616.18  33.841  24.167
 616.68  33.841  24.228
 617.18  33.724  24.197
 617.68  33.724  24.228
 618.18  33.490  24.228
 618.68  33.724  24.228
 619.18  33.724  24.228
 619.68  33.724  24.197
 620.18  33.841  24.197
 620.68  33.607  24.197
 621.18  33.724  24.197
 621.68  33.724  24.228
 622.18  33.841  24.197
 622.68  33.841  24.228
 623.18  33.607  24.197
 623.68  33.724  24.228
 624.18  33.841  24.197
 624.68  33.724  24.197
 625.18  33.724  24.197
 625.68  33.841  24.197
 626.18  33.724  24.228
 626.68  33.607  24.228
 627.18  33.841  24.197
 627.68  33.841  24.259
 628.18  33.724  24.259
 628.68  33.957  24.228
 629.18  33.841  24.197
 629.68  33.841  24.228
 630.18  33.957  24.228
 630.68  33.957  24.228
 631.18  33.841  24.228
 631.68  33.724  24.228
 632.18  33.841  24.228
 632.68  33.957  24.197
 633.18  33.841  24.228
 633.68  33.490  24.197
 634.18  33.841  24.259
 634.68  33.841  24.197
 635.18  33.841  24.228
 635.68  33.841  24.228
 636.18  33.841  24.228
 636.68  33.724  24.228
 637.18  33.724  24.228
 637.68  33.724  24.167
 638.18  33.841  24.228
 638.68  33.841  24.197
 639.18  33.957  24.197
 639.68  33.841  24.197
 640.18  33.957  24.228
 640.68  33.957  24.197
 641.18  33.957  24.197
 641.68  33.841  24.228
 642.18  33.957  24.228
 642.68  33.841  24.228
 643.18  33.841  24.259
 643.68  33.724  24.228
 644.18  33.957  24.197
 644.68  33.841  24.228
 645.18  33.957  24.228
 645.68  33.957  24.167
 646.18  33.841  24.197
 646.68  33.841  24.197
 647.18  33.841  24.290
 647.68  33.841  24.197
 648.18  33.841  24.167
 648.68  33.841  24.197
 649.18  33.841  24.228
 649.68  33.957  24.259
 650.18  33.957  24.228
 650.68  34.074  24.167
 651.18  33.957  24.228
 651.68  33.957  24.228
 652.18  34.074  24.197
 652.68  33.957  24.259
 653.18  33.957  24.197
 653.68  33.957  24.197
 654.18  33.957  24.228
 654.68  33.841  24.228
 655.18  33.957  24.228
 655.68  33.957  24.259
 656.18  34.074  24.228
 656.68  34.074  24.197
 657.18  34.074  24.197
 657.68  33.957  24.259
 658.18  33.957  24.228
 658.68  33.957  24.197
 659.18  33.841  24.228
 659.68  33.957  24.197
 660.18  33.957  24.228
 660.68  33.957  24.228
 661.18  33.957  24.228
 661.68  34.074  24.197
 662.18  34.074  24.197
 662.68  33.957  24.228
 663.18  34.191  24.197
 663.68  33.957  24.228
 664.18  34.074  24.197
 664.68  34.074  24.259
 665.18  34.074  24.167
 665.68  34.074  24.228
 666.18  34.074  24.228
 666.68  34.074  24.228
 667.18  33.957  24.228
 667.68  34.191  24.228
 668.18  34.074  24.228
 668.68  34.074  24.197
 669.18  33.957  24.228
 669.68  34.074  24.197
 670.18  34.074  24.259
 670.68  33.957  24.259
 671.18  34.074  24.228
 671.68  34.074  24.197
 672.18  33.957  24.228
 672.68  33.957  24.228
 673.18  34.074  24.197
 673.68  33.957  24.197
 674.18  33.957  24.228
 674.68  33.957  24.167
 675.18  34.074  24.228
 675.68  34.074  24.197
 676.18  34.074  24.228
 676.68  34.074  24.228
 677.18  33.957  24.228
 677.68  34.074  24.228
 678.18  34.191  24.228
 678.68  34.074  24.228
 679.18  34.191  24.197
 679.68  33.957  24.197
 680.18  34.191  24.228
 680.68  34.191  24.197
 681.18  34.074  24.136
 681.68  34.074  24.197
 682.18  34.191  24.228
 682.68  34.191  24.228
 683.18  34.191  24.228
 683.68  33.957  24.197
 684.18  34.074  24.228
 684.68  34.074  24.228
 685.18  34.074  24.197
 685.68  34.308  24.259
 686.18  34.074  24.228
 686.68  34.074  24.228
 687.18  34.074  24.228
 687.68  34.425  24.228
 688.18  34.074  24.228
 688.68  34.191  24.228
 689.18  34.074  24.228
 689.68  34.191  24.228
 690.18  34.074  24.228
 690.68  34.191  24.228
 691.18  33.957  24.228
 691.68  34.074  24.228
 692.18  34.191  24.259
 692.68  33.957  24.228
 693.18  34.074  24.197
 693.68  34.191  24.197
 694.18  34.191  24.259
 694.68  34.074  24.228
 695.18  34.191  24.228
 695.68  34.191  24.259
 696.18  33.957  24.259
 696.68  34.074  24.197
 697.18  34.074  24.228
 697.68  34.074  24.197
 698.18  34.191  24.228
 698.68  34.191  24.228
 699.18  34.191  24.197
 699.68  34.308  24.228
 700.18  34.074  24.228
 700.68  34.191  24.197
 701.18  34.191  24.228
 701.68  34.308  24.228
 702.18  34.308  24.228
 702.68  34.191  24.259
 703.18  34.074  24.228
 703.68  34.308  24.228
 704.18  34.191  24.197
 704.68  34.191  24.259
 705.18  34.191  24.228
 705.68  34.308  24.228
 706.18  34.191  24.197
 706.68  34.425  24.228
 707.18  34.425  24.197
 707.68  34.308  24.228
 708.18  34.308  24.197
 708.68  34.191  24.228
 709.18  34.074  24.228
 709.68  34.308  24.228
 710.18  34.191  24.228
 710.68  34.308  24.228
 711.18  33.957  24.228
 711.68  34.191  24.167
 712.18  34.308  24.228
 712.68  34.425  24.197
 713.18  34.191  24.228
 713.68  34.191  24.228
 714.18  34.191  24.228
 714.68  34.308  24.259
 715.18  34.191  24.228
 715.68  34.191  24.259
 716.18  34.191  24.228
 716.68  34.191  24.167
 717.18  34.308  24.228
 717.68  34.308  24.197
 718.18  34.308  24.228
 718.68  34.191  24.197
 719.18  34.308  24.228
 719.68  34.308  24.228
 720.18  34.308  24.228
 720.68  34.191  24.259
 721.18  34.308  24.228
 721.68  34.308  24.228
 722.18  34.425  24.228
 722.68  34.191  24.228
 723.18  34.191  24.228
 723.68  34.191  24.228
 724.18  34.308  24.228
 724.68  34.308  24.228
 725.18  34.425  24.259
 725.68  34.308  24.259
 726.18  34.308  24.259
 726.68  34.308  24.228
 727.18  34.191  24.228
 727.68  34.308  24.228
 728.18  34.425  24.228
 728.69  34.425  24.259
 729.19  34.308  24.259
 729.69  34.425  24.228
 730.19  34.308  24.259
 730.69  34.308  24.228
 731.19  34.425  24.259
 731.69  34.191  24.259
 732.19  34.425  24.228
 732.69  34.425  24.228
 733.19  34.425  24.228
 733.69  34.425  24.228
 734.19  34.425  24.228
 734.69  34.425  24.228
 735.19  34.308  24.228
 735.69  34.308  24.197
 736.19  34.425  24.228
 736.69  34.425  24.259
 737.19  34.308  24.228
 737.69  34.308  24.197
 738.19  34.425  24.228
 738.69  34.308  24.228
 739.19  34.308  24.228
 739.69  34.542  24.228
 740.19  34.425  24.228
 740.69  34.542  24.228
 741.19  34.308  24.228
 741.69  34.425  24.228
 742.19  34.425  24.228
 742.69  34.308  24.228
 743.19  34.425  24.197
 743.69  34.425  24.259
 744.19  34.425  24.259
 744.69  34.425  24.197
 745.19  34.425  24.197
 745.69  34.425  24.228
 746.19  34.425  24.259
 746.69  34.425  24.197
 747.19  34.425  24.228
 747.69  34.308  24.197
 748.19  34.308  24.228
 748.69  34.425  24.228
 749.19  34.308  24.197
 749.69  34.425  24.228
 750.19  34.308  24.228
 750.69  34.776  24.228
 751.19  34.542  24.228
 751.69  34.425  24.228
 752.19  34.542  24.197
 752.69  34.542  24.228
 753.19  34.425  24.259
 753.69  34.542  24.228
 754.19  34.425  24.228
 754.69  34.425  24.228
 755.19  34.542  24.228
 755.69  34.425  24.197
 756.19  34.542  24.228
 756.69  34.425  24.259
 757.19  34.542  24.290
 757.69  34.542  24.228
 758.19  34.425  24.228
 758.69  34.542  24.228
 759.19  34.542  24.228
 759.69  34.542  24.259
 760.19  34.425  24.197
 760.69  34.542  24.228
 761.19  34.425  24.197
 761.69  34.542  24.197
 762.19  34.659  24.228
 762.69  34.542  24.197
 763.19  34.542  24.228
 763.69  34.542  24.259
 764.19  34.425  24.228
 764.69  34.425  24.228
 765.19  34.425  24.228
 765.69  34.542  24.228
 766.19  34.542  24.228
 766.69  34.542  24.228
 767.19  34.542  24.259
 767.69  34.425  24.228
 768.19  34.542  24.197
 768.69  34.542  24.228
 769.19  34.659  24.197
 769.69  34.542  24.197
 770.19  34.425  24.259
 770.69  34.542  24.228
 771.19  34.542  24.197
 771.69  34.425  24.228
 772.19  34.542  24.259
 772.69  34.542  24.228
 773.19  34.542  24.228
 773.69  34.425  24.197
 774.19  34.542  24.228
 774.69  34.542  24.228
 775.19  34.542  24.197
 775.69  34.542  24.197
 776.19  34.542  24.228
 776.69  34.542  24.228
 777.19  34.542  24.228
 777.69  34.542  24.228
 778.19  34.542  24.228
 778.69  34.542  24.228
 779.19  34.659  24.259
 779.69  34.659  24.290
 780.19  34.659  24.228
 780.69  34.542  24.228
 781.19  34.659  24.228
 781.69  34.659  24.259
 782.19  34.659  24.228
 782.69  34.659  24.228
 783.19  34.776  24.228
 783.69  34.542  24.259
 784.19  34.659  24.228
 784.69  34.542  24.228
 785.19  34.659  24.197
 785.69  34.659  24.197
 786.19  34.542  24.228
 786.69  34.659  24.228
 787.19  34.542  24.228
 787.69  34.659  24.228
 788.19  34.542  24.259
 788.69  34.542  24.228
 789.19  34.659  24.259
 789.69  34.542  24.228
 790.19  34.659  24.228
 790.69  34.659  24.259
 791.19  34.659  24.259
 791.69  34.659  24.228
 792.19  34.542  24.197
 792.69  34.659  24.228
 793.19  34.659  24.228
 793.69  34.659  24.228
 794.19  34.659  24.228
 794.69  34.659  24.228
 795.19  34.659  24.228
 795.69  34.659  24.259
 796.19  34.659  24.197
 796.69  34.776  24.259
 797.19  34.659  24.197
 797.69  34.776  24.228
 798.19  34.892  24.259
 798.69  34.659  24.259
 799.19  34.659  24.228
 799.69  34.776  24.228
 800.19  34.659  24.197
 800.69  34.659  24.228
 801.19  34.659  24.259
 801.69  34.659  24.259
 802.19  34.776  24.228
 802.69  34.542  24.228
 803.19  34.542  24.228
 803.69  34.659  24.259
 804.19  34.776  24.259
 804.69  34.659  24.259
 805.19  34.776  24.197
 805.69  34.659  24.228
 806.19  34.659  24.228
 806.69  34.892  24.259
 807.19  34.776  24.228
 807.69  34.659  24.259
 808.19  34.659  24.259
 808.69  34.659  24.321
 809.19  34.659  24.228
 809.69  34.776  24.259
 810.19  34.659  24.228
 810.69  34.776  24.290
 811.19  34.776  24.259
 811.69  34.659  24.259
 812.19  34.892  24.228
 812.69  34.659  24.228
 813.19  34.776  24.228
 813.69  34.776  24.228
 814.19  34.776  24.197
 814.69  34.659  24.259
 815.19  34.892  24.228
 815.69  34.659  24.228
 816.19  34.892  24.259
 816.69  34.776  24.259
 817.19  34.659  24.259
 817.69  34.776  24.228
 818.19  34.776  24.228
 818.69  34.776  24.228
 819.19  34.892  24.290
 819.69  34.892  24.228
 820.19  34.776  24.228
 820.69  34.776  24.228
 821.19  34.542  24.228
 821.69  34.776  24.228
 822.19  34.776  24.197
 822.69  34.776  24.228
 823.19  34.776  24.228
 823.69  34.542  24.228
 824.19  34.659  24.228
 824.69  34.659  24.228
 825.19  34.659  24.228
 825.69  34.776  24.321
 826.19  34.892  24.228
 826.69  34.776  24.259
 827.19  34.776  24.228
 827.69  35.069  24.228
 828.19  34.659  24.290
 828.69  34.776  24.228
 829.19  34.776  24.259
 829.69  34.776  24.259
 830.19  34.892  24.228
 830.70  34.892  24.228
 831.20  34.892  24.259
 831.70  34.892  24.290
 832.20  34.892  24.259
 832.70  34.776  24.228
 833.20  34.542  24.197
 833.70  34.892  24.228
 834.20  34.659  24.259
 834.70  34.776  24.228
 835.20  34.659  24.228
 835.70  34.776  24.228
 836.20  34.776  24.228
 836.70  34.776  24.228
 837.20  34.892  24.228
 837.70  35.005  24.228
 838.20  34.892  24.228
 838.70  34.776  24.259
 839.20  34.892  24.259
 839.70  34.892  24.228
 840.20  35.005  24.259
 840.70  35.005  24.259
 841.20  34.892  24.228
 841.70  34.892  24.228
 842.20  34.892  24.259
 842.70  34.892  24.228
 843.20  34.892  24.167
 843.70  34.892  24.259
 844.20  34.892  24.228
 844.70  34.892  24.228
 845.20  34.776  24.228
 845.70  35.133  24.259
 846.20  34.892  24.228
 846.70  34.776  24.228
 847.20  34.892  24.228
 847.70  34.892  24.259
 848.20  35.005  24.259
 848.70  34.892  24.228
 849.20  35.005  24.228
 849.70  34.892  24.259
 850.20  34.892  24.290
 850.70  34.776  24.259
 851.20  34.659  24.259
 851.70  34.776  24.259
 852.20  34.892  24.197
 852.70  35.005  24.290
 853.20  34.892  24.228
 853.70  35.005  24.259
 854.20  34.892  24.259
 854.70  35.005  24.197
 855.20  34.892  24.259
 855.70  35.069  24.259
 856.20  34.892  24.228
 856.70  34.892  24.228
 857.20  34.892  24.228
 857.70  34.892  24.259
 858.20  34.892  24.259
 858.70  35.005  24.259
 859.20  34.892  24.228
 859.70  34.892  24.259
 860.20  34.892  24.228
 860.70  35.005  24.259
 861.20  35.005  24.228
 861.70  35.005  24.259
 862.20  35.005  24.228
 862.70  34.892  24.259
 863.20  35.005  24.228
 863.70  34.892  24.290
 864.20  35.261  24.197
 864.70  34.892  24.228
 865.20  35.005  24.228
 865.70  35.005  24.259
 866.20  34.892  24.228
 866.70  35.005  24.228
 867.20  34.892  24.259
 867.70  35.005  24.228
 868.20  34.776  24.228
 868.70  35.005  24.228
 869.20  34.892  24.259
 869.70  35.005  24.197
 870.20  35.069  24.259
 870.70  34.892  24.259
 871.20  35.005  24.259
 871.70  34.776  24.228
 872.20  35.005  24.259
 872.70  34.892  24.228
 873.20  35.005  24.259
 873.70  34.892  24.228
 874.20  35.005  24.259
 874.70  35.069  24.197
 875.20  34.892  24.259
 875.70  35.005  24.259
 876.20  35.005  24.228
 876.70  35.005  24.228
 877.20  34.892  24.228
 877.70  34.659  24.228
 878.20  35.069  24.259
 878.70  35.005  24.259
 879.20  35.005  24.259
 879.70  34.892  24.259
 880.20  35.005  24.228
 880.70  35.005  24.259
 881.20  35.069  24.259
 881.70  35.005  24.228
 882.20  35.005  24.290
 882.70  34.892  24.259
 883.20  35.005  24.259
 883.70  35.005  24.259
 884.20  35.005  24.290
 884.70  35.005  24.259
 885.20  35.005  24.259
 885.70  35.005  24.197
 886.20  35.005  24.228
 886.70  35.005  24.321
 887.20  35.069  24.228
 887.70  35.069  24.259
 888.20  35.005  24.259
 888.70  34.892  24.259
 889.20  35.069  24.228
 889.70  35.069  24.228
 890.20  35.069  24.259
 890.70  35.005  24.259
 891.20  34.892  24.259
 891.70  35.069  24.259
 892.20  35.197  24.228
 892.70  35.005  24.259
 893.20  35.133  24.228
 893.70  35.005  24.259
 894.20  34.892  24.259
 894.70  35.069  24.228
 895.20  35.005  24.228
 895.70  35.133  24.228
 896.20  35.005  24.228
 896.70  35.005  24.259
 897.20  35.005  24.228
 897.70  35.069  24.259
 898.20  35.069  24.228
 898.70  35.069  24.228
 899.20  35.069  24.290
 899.70  35.005  24.228
 900.20  35.005  24.259
 900.70  35.005  24.197
 901.20  35.069  24.228
 901.70  35.005  24.259
 902.20  35.069  24.228
 902.70  35.069  24.259
 903.20  34.892  24.228
 903.70  35.005  24.259
 904.20  35.069  24.290
 904.70  35.005  24.259
 905.20  35.069  24.259
 905.70  35.005  24.259
 906.20  35.069  24.228
 906.70  35.133  24.259
 907.20  35.069  24.228
 907.70  35.069  24.259
 908.20  35.133  24.228
 908.70  35.069  24.290
 909.20  35.069  24.259
 909.70  34.892  24.259
 910.20  35.069  24.259
 910.70  35.069  24.228
 911.20  35.069  24.259
 911.70  35.069  24.228
 912.20  35.069  24.259
 912.70  35.069  24.290
 913.20  35.069  24.259
 913.70  35.069  24.259
 914.20  35.069  24.259
 914.70  35.005  24.259
 915.20  35.005  24.259
 915.70  35.069  24.259
 916.20  35.069  24.259
 916.70  35.197  24.167
 917.20  35.133  24.259
 917.70  35.069  24.290
 918.20  35.197  24.259
 918.70  34.892  24.228
 919.20  35.069  24.228
 919.70  35.005  24.259
 920.20  35.133  24.259
 920.70  35.069  24.259
 921.20  35.069  24.228
 921.70  35.069  24.228
 922.20  35.005  24.259
 922.70  35.069  24.290
 923.20  35.069  24.259
 923.70  35.133  24.259
 924.20  35.133  24.259
 924.70  35.005  24.259
 925.20  35.133  24.228
 925.70  35.069  24.228
 926.20  35.133  24.259
 926.70  35.133  24.259
 927.20  35.133  24.228
 927.70  35.069  24.259
 928.20  34.892  24.259
 928.70  35.133  24.228
 929.20  35.069  24.259
 929.70  35.133  24.259
 930.20  35.133  24.259
 930.70  35.133  24.228
 931.20  35.133  24.259
 931.70  35.133  24.290
 932.20  35.069  24.259
 932.70  35.133  24.290
 933.20  35.069  24.290
 933.70  35.133  24.259
 934.20  35.069  24.259
 934.70  35.197  24.259
 935.20  35.069  24.228
 935.70  35.133  24.228
 936.20  35.133  24.259
 936.70  35.069  24.259
 937.20  35.133  24.259
 937.70  35.133  24.259
 938.20  35.069  24.259
 938.70  35.197  24.259
 939.20  35.133  24.259
 939.70  35.133  24.321
 940.20  35.069  24.290
 940.70  35.069  24.259
 941.20  35.133  24.259
 941.70  35.133  24.259
 942.20  35.133  24.228
 942.70  35.197  24.259
 943.20  35.197  24.259
 943.70  35.197  24.259
 944.21  35.133  24.197
 944.71  35.133  24.259
 945.21  35.133  24.259
 945.71  35.197  24.228
 946.21  35.133  24.259
 946.71  35.133  24.259
 947.21  35.133  24.228
 947.71  35.133  24.228
 948.21  35.005  24.259
 948.71  35.133  24.259
 949.21  35.069  24.259
 949.71  35.197  24.290
 950.21  35.133  24.259
 950.71  35.197  24.228
 951.21  35.133  24.259
 951.71  35.133  24.228
 952.21  35.133  24.259
 952.71  35.197  24.259
 953.21  35.133  24.259
 953.71  35.133  24.259
 954.21  35.133  24.228
 954.71  35.133  24.228
 955.21  35.133  24.259
 955.71  35.261  24.259
 956.21  35.197  24.259
 956.71  35.197  24.228
 957.21  35.261  24.228
 957.71  35.197  24.259
 958.21  35.261  24.228
 958.71  35.197  24.259
 959.21  35.197  24.228
 959.71  35.261  24.259
 960.21  35.197  24.228
 960.71  35.197  24.259
 961.21  35.197  24.259
 961.71  35.197  24.259
 962.21  35.133  24.259
 962.71  35.197  24.228
 963.21  35.197  24.228
 963.71  35.069  24.259
 964.21  35.197  24.259
 964.71  35.133  24.259
 965.21  35.069  24.259
 965.71  35.197  24.290
 966.21  35.197  24.259
 966.71  35.197  24.259
 967.21  35.197  24.259
 967.71  35.261  24.228
 968.21  35.197  24.259
 968.71  35.133  24.228
 969.21  35.197  24.259
 969.71  35.133  24.259
 970.21  35.197  24.259
 970.71  35.197  24.290
 971.21  35.197  24.228
 971.71  35.197  24.259
 972.21  35.197  24.259
 972.71  35.133  24.259
 973.21  35.197  24.228
 973.71  35.133  24.259
 974.21  35.069  24.259
 974.71  35.197  24.259
 975.21  35.133  24.259
 975.71  35.197  24.259
 976.21  35.261  24.259
 976.71  35.197  24.259
 977.21  35.197  24.259
 977.71  35.197  24.259
 978.21  35.197  24.259
 978.71  35.197  24.259
 979.21  35.133  24.259
 979.71  35.133  24.259
 980.21  35.133  24.259
 980.71  35.133  24.259
 981.21  35.197  24.259
 981.71  35.133  24.290
 982.21  35.133  24.259
 982.71  35.261  24.259
 983.21  35.197  24.259
 983.71  35.261  24.259
 984.21  35.197  24.290
 984.71  35.197  24.259
 985.21  35.197  24.228
 985.71  35.197  24.228
 986.21  35.197  24.290
 986.71  35.197  24.259
 987.21  35.197  24.228
 987.71  35.133  24.259
 988.21  35.261  24.259
 988.71  35.197  24.259
 989.21  35.197  24.259
 989.71  35.261  24.228
 990.21  35.197  24.259
 990.71  35.197  24.228
 991.21  35.133  24.259
 991.71  35.197  24.290
 992.21  35.261  24.259
 992.71  35.261  24.259
 993.21  35.197  24.321
 993.71  35.197  24.228
 994.21  35.197  24.259
 994.71  35.261  24.290
 995.21  35.197  24.228
 995.71  35.197  24.290
 996.21  35.197  24.228
 996.71  35.261  24.197
 997.21  35.197  24.259
 997.71  35.261  24.259
 998.21  35.261  24.290
 998.71  35.261  24.259
 999.21  35.197  24.259
 999.71  35.261  24.228
1000.21  35.197  24.228
1000.71  35.197  24.228
1001.21  35.069  24.259
1001.71  35.197  24.259
1002.21  35.197  24.259
1002.71  35.261  24.259
1003.21  35.261  24.259
1003.71  35.133  24.321
1004.21  35.261  24.259
1004.71  35.197  24.290
1005.21  35.261  24.228
1005.71  35.261  24.259
1006.21  35.197  24.259
1006.71  35.325  24.259
1007.21  35.325  24.228
1007.71  35.197  24.259
1008.21  35.261  24.290
1008.71  35.261  24.259
1009.21  35.261  24.259
1009.71  35.197  24.290
1010.21  35.261  24.290
1010.71  35.197  24.259
1011.21  35.261  24.259
1011.71  35.261  24.259
1012.21  35.261  24.228
1012.71  35.261  24.290
1013.21  35.261  24.259
1013.71  35.261  24.259
1014.21  35.261  24.259
1014.71  35.261  24.259
1015.21  35.261  24.290
1015.71  35.261  24.259
1016.21  35.325  24.228
1016.71  35.261  24.228
1017.21  35.325  24.228
1017.71  35.261  24.259
1018.21  35.261  24.259
1018.71  35.197  24.228
1019.21  35.261  24.259
1019.71  35.325  24.321
1020.21  35.261  24.321
1020.71  35.261  24.290
1021.21  35.197  24.259
1021.71  35.261  24.290
1022.21  35.261  24.290
1022.71  35.261  24.259
1023.21  35.197  24.290
1023.71  35.325  24.259
1024.21  35.261  24.290
1024.71  35.261  24.259
1025.21  35.261  24.290
1025.71  35.261  24.259
1026.21  35.389  24.290
1026.71  35.325  24.290
1027.21  35.261  24.259
1027.71  35.197  24.290
1028.21  35.325  24.259
1028.71  35.261  24.259
1029.21  35.197  24.228
1029.71  35.325  24.259
1030.21  35.197  24.228
1030.71  35.325  24.259
1031.21  35.325  24.259
1031.71  35.261  24.290
1032.21  35.197  24.259
1032.71  35.389  24.228
1033.21  35.261  24.290
1033.71  35.261  24.259
1034.21  35.261  24.259
1034.71  35.261  24.259
1035.21  35.325  24.259
1035.71  35.261  24.259
1036.21  35.325  24.290
1036.71  35.325  24.290
1037.21  35.389  24.290
1037.71  35.261  24.259
1038.21  35.453  24.259
1038.71  35.261  24.290
1039.21  35.325  24.259
1039.71  35.261  24.290
1040.21  35.325  24.259
1040.71  35.261  24.259
1041.21  35.197  24.228
1041.71  35.325  24.259
1042.21  35.261  24.259
1042.71  35.261  24.290
1043.21  35.261  24.259
1043.71  35.325  24.290
1044.21  35.325  24.228
1044.71  35.325  24.259
1045.21  35.453  24.259
1045.71  35.261  24.259
1046.21  35.325  24.259
1046.71  35.325  24.228
1047.21  35.325  24.259
1047.71  35.261  24.290
1048.21  35.325  24.259
1048.71  35.261  24.259
1049.21  35.325  24.228
1049.71  35.325  24.259
1050.21  35.261  24.228
1050.71  35.325  24.290
1051.21  35.325  24.259
1051.71  35.325  24.259
1052.21  35.325  24.259
1052.71  35.325  24.259
1053.21  35.325  24.259
1053.71  35.325  24.290
1054.21  35.325  24.290
1054.71  35.325  24.228
1055.21  35.389  24.197
1055.71  35.197  24.228
1056.21  35.325  24.259
1056.71  35.325  24.259
1057.21  35.325  24.259
1057.71  35.325  24.259
1058.21  35.389  24.228
1058.71  35.325  24.259
1059.21  35.325  24.259
1059.71  35.325  24.259
1060.21  35.453  24.228
1060.71  35.389  24.228
1061.21  35.261  24.259
1061.71  35.325  24.259
1062.21  35.389  24.259
1062.71  35.325  24.290
1063.21  35.325  24.259
1063.71  35.325  24.259
1064.21  35.325  24.259
1064.71  35.325  24.290
1065.21  35.389  24.290
1065.71  35.325  24.259
1066.21  35.261  24.321
1066.71  35.389  24.259
1067.21  35.389  24.290
1067.71  35.325  24.259
1068.22  35.389  24.259
1068.72  35.389  24.259
1069.22  35.389  24.290
1069.72  35.389  24.228
1070.22  35.389  24.259
1070.72  35.389  24.290
1071.22  35.389  24.259
1071.72  35.389  24.259
1072.22  35.389  24.259
1072.72  35.325  24.290
1073.22  35.325  24.259
1073.72  35.325  24.290
1074.22  35.389  24.259
1074.72  35.389  24.228
1075.22  35.389  24.321
1075.72  35.389  24.290
1076.22  35.389  24.259
1076.72  35.389  24.259
1077.22  35.389  24.290
1077.72  35.325  24.259
1078.22  35.389  24.259
1078.72  35.325  24.259
1079.22  35.325  24.259
1079.72  35.389  24.259
1080.22  35.325  24.290
1080.72  35.453  24.259
1081.22  35.325  24.259
1081.72  35.389  24.259
1082.22  35.325  24.259
1082.72  35.453  24.290
1083.22  35.325  24.259
1083.72  35.325  24.290
1084.22  35.453  24.228
1084.72  35.453  24.259
1085.22  35.325  24.228
1085.72  35.389  24.290
1086.22  35.325  24.290
1086.72  35.389  24.290
1087.22  35.453  24.259
1087.72  35.389  24.290
1088.22  35.325  24.259
1088.72  35.389  24.259
1089.22  35.325  24.228
1089.72  35.389  24.290
1090.22  35.389  24.290
1090.72  35.389  24.259
1091.22  35.325  24.259
1091.72  35.389  24.259
1092.22  35.453  24.228
1092.72  35.325  24.259
1093.22  35.389  24.259
1093.72  35.453  24.228
1094.22  35.325  24.259
1094.72  35.325  24.259
1095.22  35.389  24.290
1095.72  35.389  24.290
1096.22  35.389  24.259
1096.72  35.389  24.290
1097.22  35.389  24.290
1097.72  35.517  24.290
1098.22  35.517  24.290
1098.72  35.261  24.290
1099.22  35.389  24.259
1099.72  35.325  24.259
1100.22  35.453  24.290
1100.72  35.517  24.259
1101.22  35.389  24.259
1101.72  35.325  24.259
1102.22  35.389  24.259
1102.72  35.453  24.290
1103.22  35.389  24.290
1103.72  35.453  24.290
1104.22  35.389  24.259
1104.72  35.389  24.259
1105.22  35.453  24.290
1105.72  35.389  24.259
1106.22  35.453  24.259
1106.72  35.325  24.290
1107.22  35.453  24.228
1107.72  35.325  24.290
1108.22  35.389  24.259
1108.72  35.389  24.228
1109.22  35.389  24.259
1109.72  35.389  24.259
1110.22  35.645  24.290
1110.72  35.325  24.290
1111.22  35.389  24.290
1111.72  35.389  24.290
1112.22  35.517  24.259
1112.72  35.453  24.290
1113.22  35.453  24.290
1113.72  35.325  24.321
1114.22  35.389  24.259
1114.72  35.389  24.228
1115.22  35.389  24.259
1115.72  35.325  24.259
1116.22  35.389  24.259
1116.72  35.389  24.259
1117.22  35.453  24.259
1117.72  35.325  24.290
1118.22  35.389  24.259
1118.72  35.389  24.259
1119.22  35.517  24.290
1119.72  35.389  24.290
1120.22  35.453  24.290
1120.72  35.389  24.290
1121.22  35.453  24.290
1121.72  35.389  24.259
1122.22  35.453  24.259
1122.72  35.325  24.259
1123.22  35.453  24.290
1123.72  35.453  24.228
1124.22  35.453  24.259
1124.72  35.517  24.259
1125.22  35.453  24.290
1125.72  35.389  24.290
1126.22  35.389  24.290
1126.72  35.517  24.290
1127.22  35.453  24.290
1127.72  35.453  24.259
1128.22  35.453  24.290
1128.72  35.453  24.259
1129.22  35.453  24.290
1129.72  35.453  24.290
1130.22  35.581  24.290
1130.72  35.581  24.290
1131.22  35.517  24.259
1131.72  35.453  24.259
1132.22  35.389  24.290
1132.72  35.453  24.290
1133.22  35.453  24.290
1133.72  35.453  24.228
1134.22  35.645  24.259
1134.72  35.517  24.259
1135.22  35.389  24.290
1135.72  35.453  24.259
1136.22  35.325  24.290
1136.72  35.453  24.290
1137.22  35.453  24.290
1137.72  35.453  24.321
1138.22  35.453  24.259
1138.72  35.453  24.290
1139.22  35.517  24.259
1139.72  35.517  24.259
1140.22  35.389  24.290
1140.72  35.517  24.290
1141.22  35.389  24.259
1141.72  35.389  24.290
1142.22  35.453  24.259
1142.72  35.517  24.259
1143.22  35.517  24.290
1143.72  35.389  24.259
1144.22  35.325  24.290
1144.72  35.453  24.259
1145.22  35.453  24.290
1145.72  35.453  24.290
1146.22  35.389  24.290
1146.72  35.517  24.228
1147.22  35.389  24.290
1147.72  35.517  24.259
1148.22  35.453  24.259
1148.72  35.453  24.259
1149.22  35.453  24.290
1149.72  35.453  24.290
1150.22  35.453  24.290
1150.72  35.453  24.259
1151.22  35.453  24.290
1151.72  35.453  24.259
1152.22  35.453  24.290
1152.72  35.453  24.259
1153.22  35.453  24.290
1153.72  35.453  24.290
1154.22  35.517  24.259
1154.72  35.517  24.259
1155.22  35.453  24.290
1155.72  35.453  24.382
1156.22  35.453  24.259
1156.72  35.517  24.259
1157.22  35.517  24.259
1157.72  35.453  24.259
1158.22  35.453  24.290
1158.72  35.517  24.290
1159.22  35.453  24.290
1159.72  35.389  24.290
1160.22  35.517  24.290
1160.72  35.581  24.290
1161.22  35.517  24.259
1161.72  35.581  24.259
1162.22  35.453  24.290
1162.72  35.517  24.290
1163.22  35.453  24.290
1163.72  35.453  24.259
1164.22  35.453  24.290
1164.72  35.453  24.259
1165.22  35.453  24.321
1165.72  35.709  24.290
1166.22  35.389  24.290
1166.72  35.453  24.290
1167.22  35.517  24.290
1167.72  35.517  24.259
1168.22  35.517  24.290
1168.72  35.453  24.290
1169.22  35.517  24.351
1169.72  35.453  24.290
1170.22  35.453  24.321
1170.72  35.581  24.290
1171.22  35.581  24.290
1171.72  35.517  24.290
1172.22  35.517  24.290
1172.72  35.517  24.290
1173.22  35.517  24.290
1173.72  35.581  24.290
1174.22  35.517  24.259
1174.72  35.517  24.259
1175.22  35.517  24.290
1175.72  35.517  24.259
1176.22  35.453  24.290
1176.72  35.517  24.259
1177.22  35.517  24.290
1177.72  35.517  24.290
1178.22  35.517  24.259
1178.72  35.453  24.259
1179.22  35.389  24.290
1179.72  35.517  24.228
1180.22  35.453  24.321
1180.72  35.517  24.259
1181.23  35.517  24.321
1181.73  35.517  24.290
1182.23  35.581  24.259
1182.73  35.581  24.290
1183.23  35.517  24.290
1183.73  35.517  24.290
1184.23  35.517  24.290
1184.73  35.581  24.321
1185.23  35.517  24.290
1185.73  35.453  24.290
1186.23  35.581  24.290
1186.73  35.645  24.290
1187.23  35.581  24.259
1187.73  35.581  24.290
1188.23  35.517  24.290
1188.73  35.453  24.290
1189.23  35.453  24.259
1189.73  35.517  24.228
1190.23  35.517  24.290
1190.73  35.645  24.259
1191.23  35.581  24.290
1191.73  35.517  24.290
1192.23  35.453  24.259
1192.73  35.581  24.290
1193.23  35.517  24.290
1193.73  35.581  24.290
1194.23  35.517  24.290
1194.73  35.581  24.290
1195.23  35.645  24.321
1195.73  35.517  24.290
1196.23  35.517  24.290
1196.73  35.453  24.290
1197.23  35.453  24.290
1197.73  35.581  24.259
1198.23  35.517  24.290
1198.73  35.517  24.290
1199.23  35.581  24.259
1199.73  35.517  24.290
1200.23  35.517  24.290
1200.73  35.517  24.290
1201.23  35.517  24.290
1201.73  35.581  24.259
1202.23  35.517  24.321
1202.73  35.645  24.290
1203.23  35.581  24.290
1203.73  35.581  24.259
1204.23  35.517  24.290
1204.73  35.581  24.290
1205.23  35.581  24.259
1205.73  35.517  24.259
1206.23  35.581  24.259
1206.73  35.453  24.290
1207.23  35.581  24.290
1207.73  35.581  24.290
1208.23  35.581  24.259
1208.73  35.517  24.290
1209.23  35.453  24.259
1209.73  35.517  24.290
1210.23  35.581  24.351
1210.73  35.581  24.259
1211.23  35.581  24.259
1211.73  35.517  24.290
1212.23  35.517  24.290
1212.73  35.645  24.259
1213.23  35.645  24.259
1213.73  35.581  24.259
1214.23  35.645  24.382
1214.73  35.581  24.259
1215.23  35.581  24.259
1215.73  35.517  24.259
1216.23  35.517  24.290
1216.73  35.581  24.290
1217.23  35.581  24.290
1217.73  35.645  24.321
1218.23  35.581  24.290
1218.73  35.581  24.321
1219.23  35.581  24.290
1219.73  35.581  24.290
1220.23  35.581  24.290
1220.73  35.517  24.290
1221.23  35.645  24.290
1221.73  35.645  24.290
1222.23  35.581  24.259
1222.73  35.645  24.259
1223.23  35.581  24.290
1223.73  35.581  24.290
1224.23  35.581  24.290
1224.73  35.581  24.290
1225.23  35.581  24.290
1225.73  35.645  24.351
1226.23  35.645  24.290
1226.73  35.581  24.321
1227.23  35.581  24.290
1227.73  35.645  24.321
1228.23  35.581  24.290
1228.73  35.581  24.290
1229.23  35.581  24.351
1229.73  35.581  24.290
1230.23  35.581  24.290
1230.73  35.581  24.290
1231.23  35.517  24.290
1231.73  35.581  24.290
1232.23  35.517  24.290
1232.73  35.581  24.290
1233.23  35.645  24.290
1233.73  35.645  24.259
1234.23  35.581  24.259
1234.73  35.581  24.259
1235.23  35.517  24.290
1235.73  35.709  24.290
1236.23  35.581  24.290
1236.73  35.645  24.321
1237.23  35.581  24.290
1237.73  35.645  24.290
1238.23  35.581  24.290
1238.73  35.581  24.290
1239.23  35.645  24.290
1239.73  35.645  24.290
1240.23  35.581  24.321
1240.73  35.581  24.290
1241.23  35.581  24.290
1241.73  35.645  24.259
1242.23  35.581  24.290
1242.73  35.581  24.259
1243.23  35.581  24.290
1243.73  35.581  24.259
1244.23  35.645  24.290
1244.73  35.581  24.290
1245.23  35.453  24.290
1245.73  35.645  24.290
1246.23  35.645  24.290
1246.73  35.517  24.290
1247.23  35.581  24.321
1247.73  35.709  24.290
1248.23  35.645  24.290
1248.73  35.581  24.259
1249.23  35.517  24.290
1249.73  35.581  24.259
1250.23  35.581  24.321
1250.73  35.645  24.259
1251.23  35.581  24.259
1251.73  35.581  24.259
1252.23  35.581  24.290
1252.73  35.581  24.290
1253.23  35.645  24.321
1253.73  35.645  24.290
1254.23  35.581  24.259
1254.73  35.581  24.290
1255.23  35.581  24.290
1255.73  35.645  24.259
1256.23  35.645  24.290
1256.73  35.581  24.290
1257.23  35.517  24.321
1257.73  35.645  24.259
1258.23  35.645  24.290
1258.73  35.645  24.290
1259.23  35.645  24.290
1259.73  35.645  24.290
1260.23  35.709  24.290
1260.73  35.645  24.259
1261.23  35.645  24.290
1261.73  35.709  24.321
1262.23  35.709  24.290
1262.73  35.645  24.290
1263.23  35.709  24.290
1263.73  35.645  24.321
1264.23  35.581  24.290
1264.73  35.645  24.321
1265.23  35.581  24.321
1265.73  35.645  24.290
1266.23  35.645  24.321
1266.73  35.581  24.290
1267.23  35.581  24.321
1267.73  35.645  24.290
1268.23  35.645  24.290
1268.73  35.645  24.290
1269.23  35.645  24.290
1269.73  35.645  24.290
1270.23  35.645  24.321
1270.73  35.773  24.321
1271.23  35.709  24.290
1271.73  35.709  24.321
1272.23  35.709  24.290
1272.73  35.645  24.321
1273.23  35.645  24.290
1273.73  35.645  24.321
1274.23  35.581  24.259
1274.73  35.645  24.321
1275.23  35.709  24.290
1275.73  35.645  24.290
1276.23  35.581  24.290
1276.73  35.645  24.290
1277.23  35.581  24.259
1277.73  35.709  24.290
1278.23  35.709  24.290
1278.73  35.773  24.290
1279.23  35.709  24.321
1279.73  35.645  24.321
1280.23  35.581  24.290
1280.73  35.645  24.290
1281.23  35.645  24.290
1281.73  35.581  24.259
1282.23  35.645  24.290
1282.73  35.645  24.290
1283.23  35.645  24.290
1283.73  35.645  24.290
1284.23  35.645  24.259
1284.73  35.709  24.259
1285.23  35.645  24.290
1285.73  35.709  24.290
1286.23  35.709  24.321
1286.73  35.709  24.290
1287.23  35.773  24.290
1287.73  35.709  24.290
1288.23  35.645  24.321
1288.73  35.709  24.321
1289.23  35.645  24.290
1289.73  35.645  24.290
1290.23  35.709  24.321
1290.73  35.773  24.321
1291.23  35.645  24.290
1291.73  35.709  24.290
1292.23  35.709  24.290
1292.73  35.709  24.321
1293.23  35.709  24.290
1293.73  35.645  24.321
1294.24  35.709  24.290
1294.74  35.709  24.290
1295.24  35.709  24.321
1295.74  35.645  24.321
1296.24  35.709  24.290
1296.74  35.709  24.290
1297.24  35.645  24.290
1297.74  35.645  24.382
1298.24  35.645  24.321
1298.74  35.709  24.290
1299.24  35.709  24.321
1299.74  35.709  24.259
1300.24  35.645  24.290
1300.74  35.645  24.321
1301.24  35.645  24.290
1301.74  35.645  24.290
1302.24  35.709  24.321
1302.74  35.709  24.290
1303.24  35.645  24.290
1303.74  35.645  24.290
1304.24  35.709  24.290
1304.74  35.709  24.290
1305.24  35.645  24.290
1305.74  35.709  24.290
1306.24  35.709  24.290
1306.74  35.709  24.290
1307.24  35.709  24.290
1307.74  35.709  24.290
1308.24  35.709  24.290
1308.74  35.581  24.321
1309.24  35.645  24.290
1309.74  35.709  24.290
1310.24  35.709  24.290
1310.74  35.709  24.290
1311.24  35.837  24.290
1311.74  35.709  24.321
1312.24  35.709  24.290
1312.74  35.709  24.290
1313.24  35.645  24.351
1313.74  35.709  24.290
1314.24  35.709  24.290
1314.74  35.709  24.290
1315.24  35.709  24.321
1315.74  35.709  24.321
1316.24  35.709  24.290
1316.74  35.709  24.259
1317.24  35.709  24.259
1317.74  35.709  24.259
1318.24  35.709  24.259
1318.74  35.773  24.259
1319.24  35.581  24.321
1319.74  35.709  24.321
1320.24  35.709  24.290
1320.74  35.645  24.290
1321.24  35.709  24.321
1321.74  35.709  24.290
1322.24  35.645  24.290
1322.74  35.773  24.321
1323.24  35.581  24.290
1323.74  35.709  24.382
1324.24  35.709  24.290
1324.74  35.773  24.290
1325.24  35.709  24.321
1325.74  35.709  24.321
1326.24  35.773  24.321
1326.74  35.709  24.290
1327.24  35.773  24.321
1327.74  35.773  24.321
1328.24  35.581  24.351
1328.74  35.773  24.290
1329.24  35.709  24.290
1329.74  35.709  24.290
1330.24  35.773  24.290
1330.74  35.709  24.351
1331.24  35.709  24.321
1331.74  35.709  24.351
1332.24  35.709  24.290
1332.74  35.709  24.290
1333.24  35.837  24.290
1333.74  35.773  24.321
1334.24  35.709  24.321
1334.74  35.773  24.321
1335.24  35.709  24.321
1335.74  35.773  24.290
1336.24  35.773  24.290
1336.74  35.709  24.290
1337.24  35.709  24.321
1337.74  35.773  24.321
1338.24  35.773  24.290
1338.74  35.709  24.321
1339.24  35.773  24.321
1339.74  35.773  24.290
1340.24  35.709  24.290
1340.74  35.645  24.321
1341.24  35.773  24.290
1341.74  35.709  24.290
1342.24  35.645  24.290
1342.74  35.709  24.290
1343.24  35.709  24.351
1343.74  35.709  24.290
1344.24  35.645  24.290
1344.74  35.773  24.321
1345.24  35.645  24.321
1345.74  35.709  24.290
1346.24  35.773  24.259
1346.74  35.709  24.321
1347.24  35.773  24.321
1347.74  35.709  24.290
1348.24  35.773  24.290
1348.74  35.773  24.321
1349.24  35.709  24.290
1349.74  35.773  24.290
1350.24  35.709  24.321
1350.74  35.773  24.290
1351.24  35.773  24.321
1351.74  35.773  24.290
1352.24  35.645  24.290
1352.74  35.773  24.259
1353.24  35.709  24.290
1353.74  35.709  24.290
1354.24  35.709  24.321
1354.74  35.773  24.321
1355.24  35.773  24.321
1355.74  35.773  24.290
1356.24  35.709  24.321
1356.74  35.773  24.290
1357.24  35.709  24.321
1357.74  35.709  24.321
1358.24  35.773  24.321
1358.74  35.837  24.321
1359.24  35.773  24.290
1359.74  35.709  24.321
1360.24  35.837  24.321
1360.74  35.773  24.321
1361.24  35.773  24.351
1361.74  35.709  24.321
1362.24  35.709  24.290
1362.74  35.773  24.321
1363.24  35.773  24.259
1363.74  35.773  24.321
1364.24  35.773  24.321
1364.74  35.709  24.321
1365.24  35.773  24.321
1365.74  35.837  24.321
1366.24  35.709  24.290
1366.74  35.773  24.290
1367.24  35.773  24.290
1367.74  35.837  24.290
1368.24  35.837  24.321
1368.74  35.773  24.290
1369.24  35.773  24.321
1369.74  35.709  24.321
1370.24  35.709  24.290
1370.74  35.709  24.321
1371.24  35.773  24.259
1371.74  35.709  24.321
1372.24  35.773  24.321
1372.74  35.709  24.290
1373.24  35.773  24.321
1373.74  35.837  24.321
1374.24  35.709  24.290
1374.74  35.773  24.321
1375.24  35.773  24.290
1375.74  35.837  24.321
1376.24  35.773  24.290
1376.74  35.709  24.321
1377.24  35.773  24.290
1377.74  35.773  24.351
1378.24  35.773  24.290
1378.74  35.773  24.351
1379.24  35.773  24.290
1379.74  35.773  24.321
1380.24  35.773  24.290
1380.74  35.773  24.290
1381.24  35.581  24.259
1381.74  35.773  24.321
1382.24  35.709  24.321
1382.74  35.837  24.351
1383.24  35.773  24.351
1383.74  35.773  24.321
1384.24  35.773  24.290
1384.74  35.837  24.290
1385.24  35.773  24.321
1385.74  35.773  24.321
1386.24  35.773  24.290
1386.74  35.773  24.290
1387.24  35.773  24.351
1387.74  35.837  24.321
1388.24  35.901  24.321
1388.74  35.773  24.321
1389.24  35.837  24.321
1389.74  35.773  24.290
1390.24  35.773  24.351
1390.74  35.773  24.351
1391.24  35.773  24.290
1391.74  35.773  24.321
1392.24  35.773  24.321
1392.74  35.965  24.321
1393.24  35.773  24.321
1393.74  35.837  24.321
1394.24  35.837  24.321
1394.74  35.773  24.290
1395.24  35.901  24.290
1395.74  35.837  24.321
1396.24  35.837  24.290
1396.74  35.709  24.321
1397.24  35.773  24.321
1397.74  35.901  24.321
1398.24  35.773  24.321
1398.74  35.773  24.351
1399.24  35.709  24.290
1399.74  35.773  24.290
1400.24  35.837  24.321
1400.74  35.709  24.290
1401.24  35.645  24.321
1401.74  35.837  24.351
1402.24  35.773  24.290
1402.74  35.837  24.321
1403.24  35.773  24.290
1403.74  35.709  24.290
1404.24  35.837  24.290
1404.74  35.837  24.259
1405.24  35.773  24.321
1405.74  35.773  24.321
1406.24  35.837  24.321
1406.74  35.773  24.259
1407.25  35.773  24.290
1407.75  35.773  24.321
1408.25  35.837  24.321
1408.75  35.773  24.321
1409.25  35.837  24.290
1409.75  35.773  24.321
1410.25  35.901  24.321
1410.75  35.901  24.259
1411.25  35.773  24.321
1411.75  35.837  24.290
1412.25  35.773  24.228
1412.75  35.901  24.321
1413.25  35.773  24.290
1413.75  35.837  24.290
1414.25  35.837  24.290
1414.75  35.837  24.290
1415.25  35.965  24.290
1415.75  35.901  24.351
1416.25  35.837  24.290
1416.75  35.773  24.290
1417.25  35.837  24.321
1417.75  35.837  24.321
1418.25  35.773  24.321
1418.75  35.837  24.290
1419.25  35.837  24.321
1419.75  35.837  24.290
1420.25  35.837  24.290
1420.75  35.837  24.321
1421.25  35.773  24.321
1421.75  35.837  24.321
1422.25  35.901  24.321
1422.75  35.837  24.321
1423.25  35.773  24.321
1423.75  35.901  24.290
1424.25  35.901  24.321
1424.75  35.837  24.321
1425.25  35.837  24.321
1425.75  35.837  24.321
1426.25  35.837  24.321
1426.75  35.837  24.321
1427.25  35.773  24.351
1427.75  35.837  24.321
1428.25  35.837  24.321
1428.75  35.837  24.321
1429.25  35.837  24.321
1429.75  35.773  24.351
1430.25  35.773  24.321
1430.75  35.837  24.321
1431.25  35.901  24.321
1431.75  35.837  24.321
1432.25  35.837  24.321
1432.75  35.773  24.290
1433.25  35.837  24.351
1433.75  35.773  24.321
1434.25  35.837  24.351
1434.75  35.837  24.321
1435.25  35.773  24.351
1435.75  35.837  24.321
1436.25  35.837  24.321
1436.75  35.773  24.321
1437.25  35.773  24.321
1437.75  35.901  24.321
1438.25  35.837  24.290
1438.75  35.837  24.290
1439.25  35.965  24.321
1439.75  35.901  24.259
1440.25  35.901  24.321
1440.75  35.773  24.321
1441.25  35.773  24.290
1441.75  35.837  24.321
1442.25  35.837  24.321
1442.75  35.837  24.351
1443.25  35.837  24.351
1443.75  35.901  24.290
1444.25  35.837  24.321
1444.75  35.965  24.290
1445.25  35.837  24.290
1445.75  35.837  24.351
1446.25  35.773  24.290
1446.75  35.837  24.351
1447.25  35.901  24.321
1447.75  35.901  24.321
1448.25  35.901  24.321
1448.75  35.837  24.321
1449.25  36.029  24.321
1449.75  35.837  24.290
1450.25  35.837  24.290
1450.75  35.837  24.290
1451.25  35.901  24.321
1451.75  35.901  24.321
1452.25  35.773  24.321
1452.75  35.773  24.290
1453.25  35.837  24.382
1453.75  35.837  24.321
1454.25  35.837  24.351
1454.75  35.837  24.321
1455.25  35.837  24.321
1455.75  35.837  24.321
1456.25  35.773  24.321
1456.75  35.773  24.321
1457.25  35.901  24.321
1457.75  35.901  24.290
1458.25  35.965  24.290
1458.75  35.965  24.321
1459.25  35.837  24.321
1459.75  35.837  24.321
1460.25  35.837  24.290
1460.75  35.773  24.321
1461.25  35.901  24.321
1461.75  35.837  24.321
1462.25  35.837  24.290
1462.75  35.901  24.321
1463.25  35.837  24.321
1463.75  35.773  24.290
1464.25  35.901  24.351
1464.75  35.901  24.351
1465.25  35.837  24.351
1465.75  35.837  24.290
1466.25  35.837  24.321
1466.75  35.901  24.290
1467.25  35.837  24.321
1467.75  35.901  24.351
1468.25  35.901  24.321
1468.75  35.837  24.321
1469.25  35.837  24.321
1469.75  35.901  24.351
1470.25  35.837  24.321
1470.75  35.901  24.321
1471.25  35.901  24.321
1471.75  35.901  24.321
1472.25  35.837  24.351
1472.75  35.901  24.321
1473.25  35.901  24.321
1473.75  35.773  24.321
1474.25  35.965  24.321
1474.75  35.901  24.290
1475.25  35.901  24.321
1475.75  35.901  24.321
1476.25  35.901  24.321
1476.75  35.901  24.321
1477.25  35.901  24.351
1477.75  35.837  24.321
1478.25  35.837  24.321
1478.75  35.901  24.321
1479.25  35.901  24.321
1479.75  35.837  24.321
1480.25  35.901  24.321
1480.75  35.901  24.321
1481.25  35.901  24.321
1481.75  35.837  24.321
1482.25  35.965  24.382
1482.75  35.837  24.321
1483.25  35.901  24.351
1483.75  35.901  24.321
1484.25  35.901  24.321
1484.75  35.901  24.290
1485.25  35.901  24.351
1485.75  36.029  24.351
1486.25  35.901  24.351
1486.75  35.837  24.321
1487.25  35.901  24.321
1487.75  35.965  24.321
1488.25  35.965  24.321
1488.75  35.901  24.321
1489.25  35.901  24.321
1489.75  35.901  24.321
1490.25  35.901  24.321
1490.75  35.901  24.351
1491.25  35.965  24.290
1491.75  35.901  24.321
1492.25  35.901  24.290
1492.75  35.901  24.351
1493.25  35.837  24.290
1493.75  35.837  24.321
1494.25  35.901  24.351
1494.75  35.901  24.321
1495.25  35.901  24.351
1495.75  35.901  24.321
1496.25  35.901  24.290
1496.75  35.901  24.321
1497.25  35.965  24.321
1497.75  35.901  24.290
1498.25  35.901  24.321
1498.75  35.837  24.321
1499.25  35.901  24.321
1499.75  35.965  24.290
1500.25  35.901  24.321
1500.75  35.965  24.321
1501.25  35.773  24.351
1501.75  35.965  24.321
1502.25  35.901  24.351
1502.75  35.901  24.290
1503.25  35.901  24.321
1503.75  35.901  24.290
1504.25  35.901  24.351
1504.75  35.965  24.351
1505.25  35.901  24.321
1505.75  35.901  24.321
1506.25  35.901  24.351
1506.75  35.901  24.351
1507.25  35.901  24.290
1507.75  35.901  24.351
1508.25  35.901  24.321
1508.75  35.901  24.321
1509.25  35.901  24.351
1509.76  35.901  24.351
1510.26  35.901  24.321
1510.76  36.029  24.321
1511.26  35.965  24.351
1511.76  35.901  24.321
1512.26  35.901  24.290
1512.76  35.965  24.321
1513.26  35.965  24.351
1513.76  35.965  24.351
1514.26  35.837  24.321
1514.76  35.901  24.382
1515.26  35.965  24.351
1515.76  35.965  24.351
1516.26  35.901  24.321
1516.76  35.901  24.321
1517.26  35.901  24.259
1517.76  35.901  24.321
1518.26  35.901  24.351
1518.76  35.965  24.351
1519.26  35.965  24.321
1519.76  35.901  24.321
1520.26  35.901  24.290
1520.76  35.901  24.321
1521.26  35.901  24.321
1521.76  35.901  24.321
1522.26  35.901  24.321
1522.76  35.901  24.351
1523.26  35.901  24.321
1523.76  35.837  24.321
1524.26  35.837  24.351
1524.76  35.837  24.321
1525.26  35.837  24.321
1525.76  35.773  24.321
1526.26  35.773  24.321
1526.76  35.773  24.321
1527.26  35.773  24.321
1527.76  35.773  24.321
1528.26  35.709  24.290
1528.76  35.709  24.321
1529.26  35.709  24.321
1529.76  35.645  24.321
1530.26  35.645  24.351
1530.76  35.581  24.351
1531.26  35.645  24.321
1531.76  35.581  24.321
1532.26  35.581  24.290
1532.76  35.581  24.321
1533.26  35.645  24.321
1533.76  35.517  24.321
1534.26  35.581  24.351
1534.76  35.453  24.351
1535.26  35.517  24.321
1535.76  35.517  24.351
1536.26  35.453  24.290
1536.76  35.581  24.321
1537.26  35.389  24.351
1537.76  35.517  24.321
1538.26  35.389  24.321
1538.76  35.453  24.321
1539.26  35.389  24.321
1539.76  35.389  24.321
1540.26  35.389  24.290
1540.76  35.453  24.321
1541.26  35.517  24.321
1541.76  35.389  24.321
1542.26  35.389  24.321
1542.76  35.389  24.351
1543.26  35.325  24.290
1543.76  35.325  24.321
1544.26  35.389  24.351
1544.76  35.325  24.290
1545.26  35.261  24.351
1545.76  35.261  24.351
1546.26  35.261  24.351
1546.76  35.261  24.351
1547.26  35.261  24.321
1547.76  35.261  24.351
1548.26  35.261  24.321
1548.76  35.197  24.321
1549.26  35.197  24.321
1549.76  35.197  24.321
1550.26  35.133  24.321
1550.76  35.197  24.321
1551.26  35.197  24.321
1551.76  35.133  24.321
1552.26  35.325  24.321
1552.76  35.133  24.321
1553.26  35.197  24.351
1553.76  35.133  24.290
1554.26  35.069  24.290
1554.76  35.133  24.321
1555.26  35.069  24.290
1555.76  35.197  24.321
1556.26  35.133  24.321
1556.76  35.069  24.321
1557.26  35.069  24.321
1557.76  35.069  24.321
1558.26  35.005  24.351
1558.76  35.069  24.351
1559.26  35.069  24.321
1559.76  34.892  24.351
1560.26  35.005  24.321
1560.76  35.005  24.382
1561.26  35.005  24.321
1561.76  35.005  24.321
1562.26  35.005  24.290
1562.76  34.892  24.321
1563.26  34.776  24.321
1563.76  34.892  24.321
1564.26  34.776  24.290
1564.76  34.892  24.321
1565.26  35.069  24.321
1565.76  34.776  24.290
1566.26  34.892  24.321
1566.76  34.892  24.290
1567.26  34.776  24.351
1567.76  34.892  24.321
1568.26  34.776  24.351
1568.76  34.659  24.321
1569.26  34.776  24.351
1569.76  34.776  24.321
1570.26  34.776  24.321
1570.76  34.776  24.259
1571.26  34.659  24.321
1571.76  34.892  24.228
1572.26  34.776  24.351
1572.76  34.542  24.290
1573.26  34.659  24.351
1573.76  34.659  24.290
1574.26  34.542  24.290
1574.76  34.542  24.351
1575.26  34.659  24.321
1575.76  34.542  24.321
1576.26  34.659  24.321
1576.76  34.776  24.321
1577.26  34.542  24.321
1577.76  34.542  24.321
1578.26  34.659  24.321
1578.76  34.542  24.290
1579.26  34.659  24.321
1579.76  34.425  24.321
1580.26  34.542  24.290
1580.76  34.425  24.321
1581.26  34.542  24.321
1581.76  34.542  24.321
1582.26  34.425  24.351
1582.76  34.425  24.321
1583.26  34.308  24.351
1583.76  34.425  24.321
1584.26  34.308  24.321
1584.76  34.425  24.321
1585.26  34.425  24.321
1585.76  34.191  24.321
1586.26  34.308  24.290
1586.76  34.308  24.351
1587.26  34.308  24.351
1587.76  34.308  24.321
1588.26  34.308  24.321
1588.76  34.191  24.351
1589.26  34.308  24.321
1589.76  34.308  24.351
1590.26  34.191  24.351
1590.76  34.074  24.321
1591.26  34.191  24.321
1591.76  34.191  24.321
1592.26  34.191  24.321
1592.76  34.074  24.321
1593.26  34.191  24.321
1593.76  34.191  24.321
1594.26  34.074  24.321
1594.76  34.308  24.321
1595.26  34.074  24.321
1595.76  34.074  24.351
1596.26  34.074  24.321
1596.76  33.957  24.351
1597.26  34.074  24.321
1597.76  34.191  24.321
1598.26  34.074  24.351
1598.76  34.074  24.351
1599.26  34.074  24.290
1599.76  33.957  24.321
1600.26  34.074  24.321
1600.76  33.957  24.321
1601.26  34.074  24.321
1601.76  33.957  24.351
1602.26  33.841  24.351
1602.76  33.957  24.382
1603.26  34.074  24.321
1603.76  33.957  24.321
1604.26  33.957  24.351
1604.76  33.841  24.321
1605.26  34.074  24.321
1605.76  33.841  24.351
1606.26  33.841  24.290
1606.76  33.841  24.351
1607.26  33.724  24.351
1607.76  33.841  24.351
1608.26  33.841  24.351
1608.76  33.724  24.351
1609.26  33.841  24.351
1609.76  33.724  24.321
1610.26  33.724  24.351
1610.76  33.957  24.321
1611.26  33.841  24.351
1611.76  33.841  24.321
1612.26  33.607  24.321
1612.76  33.607  24.351
1613.26  33.841  24.321
1613.76  33.724  24.321
1614.26  33.607  24.321
1614.76  33.724  24.382
1615.26  33.607  24.321
1615.76  33.607  24.321
1616.26  33.490  24.382
1616.76  33.607  24.321
1617.26  33.490  24.351
1617.76  33.724  24.351
1618.26  33.607  24.321
1618.76  33.490  24.321
1619.26  33.607  24.321
1619.76  33.607  24.351
1620.26  33.607  24.321
1620.76  33.490  24.321
1621.26  33.607  24.321
1621.76  33.490  24.321
1622.26  33.607  24.351
1622.77  33.490  24.290
1623.27  33.490  24.321
1623.77  33.607  24.290
1624.27  33.490  24.351
1624.77  33.373  24.351
1625.27  33.256  24.321
1625.77  33.373  24.321
1626.27  33.490  24.321
1626.77  33.373  24.321
1627.27  33.256  24.321
1627.77  33.373  24.321
1628.27  33.490  24.351
1628.77  33.373  24.351
1629.27  33.256  24.351
1629.77  33.373  24.351
1630.27  33.256  24.321
1630.77  33.373  24.351
1631.27  33.256  24.321
1631.77  33.256  24.321
1632.27  33.373  24.321
1632.77  33.256  24.321
1633.27  33.256  24.321
1633.77  33.256  24.321
1634.27  33.256  24.321
1634.77  33.256  24.290
1635.27  33.373  24.351
1635.77  33.256  24.290
1636.27  33.139  24.351
1636.77  33.373  24.351
1637.27  33.022  24.321
1637.77  33.022  24.351
1638.27  33.022  24.321
1638.77  33.022  24.321
1639.27  33.022  24.351
1639.77  33.022  24.321
1640.27  33.139  24.382
1640.77  33.256  24.382
1641.27  33.139  24.321
1641.77  32.906  24.290
1642.27  33.022  24.321
1642.77  33.139  24.382
1643.27  33.139  24.290
1643.77  33.022  24.321
1644.27  33.022  24.321
1644.77  33.022  24.321
1645.27  33.022  24.321
1645.77  33.022  24.321
1646.27  33.139  24.351
1646.77  33.139  24.321
1647.27  32.906  24.321
1647.77  33.022  24.351
1648.27  33.022  24.351
1648.77  32.789  24.321
1649.27  33.022  24.351
1649.77  32.906  24.351
1650.27  33.022  24.321
1650.77  33.022  24.382
1651.27  33.022  24.321
1651.77  33.022  24.351
1652.27  32.906  24.351
1652.77  33.022  24.382
1653.27  32.789  24.351
1653.77  32.789  24.321
1654.27  33.022  24.321
1654.77  32.906  24.351
1655.27  32.906  24.351
1655.77  32.672  24.321
1656.27  33.022  24.321
1656.77  32.906  24.321
1657.27  32.789  24.382
1657.77  32.906  24.321
1658.27  32.672  24.351
1658.77  32.789  24.382
1659.27  32.789  24.321
1659.77  32.906  24.290
1660.27  32.672  24.351
1660.77  32.672  24.321
1661.27  32.789  24.351
1661.77  32.789  24.321
1662.27  32.672  24.321
1662.77  32.789  24.321
1663.27  32.672  24.351
1663.77  32.789  24.351
1664.27  32.672  24.321
1664.77  32.555  24.351
1665.27  32.555  24.382
1665.77  32.555  24.351
1666.27  32.789  24.321
1666.77  32.555  24.321
1667.27  32.555  24.321
1667.77  32.555  24.351
1668.27  32.204  24.321
1668.77  32.555  24.290
1669.27  32.438  24.321
1669.77  32.555  24.351
1670.27  32.672  24.321
1670.77  32.438  24.321
1671.27  32.555  24.290
1671.77  32.438  24.321
1672.27  32.555  24.321
1672.77  32.438  24.321
1673.27  32.438  24.321
1673.77  32.321  24.321
1674.27  32.438  24.321
1674.77  32.321  24.259
1675.27  32.438  24.351
1675.77  32.438  24.321
1676.27  32.555  24.321
1676.77  32.438  24.321
1677.27  32.438  24.351
1677.77  32.438  24.351
1678.27  32.321  24.351
1678.77  32.438  24.321
1679.27  32.321  24.351
1679.77  32.438  24.351
1680.27  32.321  24.382
1680.77  32.438  24.290
1681.27  32.438  24.321
1681.77  32.204  24.351
1682.27  32.321  24.351
1682.77  32.321  24.351
1683.27  32.321  24.351
1683.77  32.321  24.290
1684.27  32.321  24.382
1684.77  32.321  24.290
1685.27  32.204  24.351
1685.77  32.204  24.321
1686.27  32.321  24.321
1686.77  32.204  24.321
1687.27  32.321  24.382
1687.77  32.087  24.351
1688.27  32.204  24.351
1688.77  32.204  24.321
1689.27  32.087  24.351
1689.77  32.204  24.321
1690.27  32.204  24.321
1690.77  32.087  24.321
1691.27  32.087  24.290
1691.77  32.087  24.321
1692.27  32.087  24.351
1692.77  32.204  24.321
1693.27  32.087  24.351
1693.77  32.204  24.351
1694.27  31.971  24.351
1694.77  31.971  24.321
1695.27  32.087  24.321
1695.77  32.204  24.290
1696.27  31.971  24.351
1696.77  32.087  24.351
1697.27  32.204  24.413
1697.77  32.087  24.321
1698.27  31.737  24.351
1698.77  31.854  24.321
1699.27  31.971  24.351
1699.77  31.971  24.321
1700.27  31.854  24.351
1700.77  31.971  24.321
1701.27  31.971  24.351
1701.77  31.854  24.321
1702.27  31.971  24.321
1702.77  31.854  24.321
1703.27  31.854  24.351
1703.77  31.971  24.321
1704.27  31.737  24.321
1704.77  31.737  24.351
1705.27  32.087  24.321
1705.77  31.854  24.351
1706.27  31.737  24.351
1706.77  31.854  24.351
1707.27  31.854  24.351
1707.77  31.854  24.351
1708.27  31.737  24.351
1708.77  31.737  24.351
1709.27  31.737  24.290
1709.77  31.854  24.321
1710.27  31.737  24.351
1710.77  31.854  24.321
1711.27  31.737  24.351
1711.77  31.854  24.351
1712.27  31.854  24.351
1712.77  31.854  24.351
1713.27  31.737  24.351
1713.77  31.737  24.382
1714.27  31.854  24.351
1714.77  31.737  24.321
1715.27  31.620  24.351
1715.77  31.854  24.321
1716.27  31.737  24.321
1716.77  31.737  24.321
1717.27  31.620  24.382
1717.77  31.620  24.351
1718.27  31.854  24.351
1718.77  31.620  24.321
1719.27  31.620  24.351
1719.77  31.620  24.321
1720.27  31.503  24.351
1720.77  31.620  24.382
1721.27  31.620  24.351
1721.77  31.620  24.321
1722.27  31.620  24.321
1722.77  31.503  24.321
1723.27  31.620  24.321
1723.77  31.620  24.351
1724.27  31.737  24.351
1724.77  31.620  24.321
1725.27  31.620  24.290
1725.77  31.386  24.321
1726.27  31.503  24.290
1726.77  31.503  24.351
1727.27  31.386  24.321
1727.77  31.269  24.382
1728.27  31.503  24.382
1728.77  31.620  24.321
1729.27  31.620  24.321
1729.77  31.503  24.321
1730.27  31.503  24.351
1730.77  31.620  24.351
1731.27  31.503  24.382
1731.77  31.269  24.351
1732.27  31.620  24.351
1732.77  31.386  24.351
1733.27  31.503  24.351
1733.77  31.386  24.290
1734.27  31.503  24.351
1734.77  31.386  24.351
1735.27  31.386  24.351
1735.77  31.386  24.321
1736.28  31.503  24.351
1736.78  31.269  24.290
1737.28  31.386  24.351
1737.78  31.386  24.321
1738.28  31.386  24.321
1738.78  31.269  24.321
1739.28  31.386  24.321
1739.78  31.269  24.321
1740.28  31.386  24.259
1740.78  31.386  24.351
1741.28  31.386  24.321
1741.78  31.269  24.351
1742.28  31.152  24.351
1742.78  31.269  24.321
1743.28  31.386  24.351
1743.78  31.152  24.321
1744.28  31.386  24.351
1744.78  31.152  24.351
1745.28  31.386  24.321
1745.78  31.152  24.321
1746.28  31.620  24.321
1746.78  31.152  24.321
1747.28  31.152  24.351
1747.78  31.152  24.321
1748.28  31.269  24.351
1748.78  31.152  24.351
1749.28  31.152  24.351
1749.78  31.036  24.321
1750.28  31.036  24.351
1750.78  31.152  24.351
1751.28  31.036  24.351
1751.78  31.152  24.351
1752.28  31.036  24.351
1752.78  31.036  24.321
1753.28  31.036  24.351
1753.78  31.152  24.321
1754.28  31.036  24.321
1754.78  31.152  24.382
1755.28  31.152  24.351
1755.78  31.152  24.351
1756.28  31.036  24.351
1756.78  31.152  24.351
1757.28  31.152  24.351
1757.78  31.036  24.290
1758.28  31.152  24.321
1758.78  31.152  24.351
1759.28  31.036  24.351
1759.78  30.919  24.382
1760.28  31.036  24.382
1760.78  31.152  24.351
1761.28  31.036  24.351
1761.78  30.919  24.321
1762.28  30.919  24.351
1762.78  30.919  24.321
1763.28  30.802  24.351
1763.78  31.036  24.321
1764.28  30.919  24.351
1764.78  30.802  24.351
1765.28  30.919  24.321
1765.78  31.036  24.351
1766.28  30.802  24.351
1766.78  30.802  24.382
1767.28  30.802  24.351
1767.78  30.919  24.321
1768.28  30.802  24.351
1768.78  30.802  24.382
1769.28  31.036  24.382
1769.78  30.685  24.321
1770.28  30.802  24.351
1770.78  30.919  24.321
1771.28  30.919  24.351
1771.78  30.802  24.382
1772.28  30.802  24.351
1772.78  30.685  24.351
1773.28  30.802  24.321
1773.78  30.802  24.382
1774.28  30.802  24.321
1774.78  30.685  24.351
1775.28  31.036  24.351
1775.78  30.802  24.351
1776.28  31.036  24.321
1776.78  30.685  24.321
1777.28  30.802  24.321
1777.78  30.685  24.321
1778.28  30.685  24.290
1778.78  30.568  24.290
1779.28  30.685  24.351
1779.78  30.802  24.351
1780.28  30.685  24.351
1780.78  30.568  24.290
1781.28  30.685  24.321
1781.78  30.685  24.351
1782.28  30.568  24.351
1782.78  30.334  24.351
1783.28  30.217  24.351
1783.78  30.217  24.351
1784.28  29.985  24.351
1784.78  29.985  24.382
1785.28  29.877  24.351
1785.78  29.877  24.351
1786.28  29.768  24.351
1786.78  29.660  24.351
1787.28  29.660  24.321
1787.78  29.552  24.321
1788.28  29.552  24.351
1788.78  29.335  24.321
1789.28  29.444  24.321
1789.78  29.335  24.321
1790.28  29.335  24.321
1790.78  29.335  24.321
1791.28  29.011  24.321
1791.78  29.227  24.351
1792.28  29.227  24.321
1792.78  29.119  24.351
1793.28  29.011  24.321
1793.78  29.119  24.321
1794.28  28.902  24.321
1794.78  28.902  24.351
1795.28  28.902  24.321
1795.78  28.794  24.321
1796.28  28.794  24.321
1796.78  28.902  24.321
1797.28  28.578  24.290
1797.78  27.495  24.351
1798.28  26.737  24.321
1798.78  26.304  24.321
1799.28  25.980  24.290
1799.78  25.980  24.290
1800.28  25.655  24.321
1800.78  25.438  24.321
1801.28  25.438  24.321
1801.78  25.330  24.321
1802.28  25.114  24.321
1802.78  25.005  24.321
1803.28  25.005  24.321
1803.78  24.975  24.321
1804.28  24.949  24.321
1804.78  24.949  24.321
1805.28  24.923  24.321
1805.78  24.923  24.321
1806.28  24.897  24.321
1806.78  24.871  24.321
