   2.00  24.375  23.705
   2.50  24.375  23.705
   3.00  24.375  23.705
   3.50  24.401  23.705
   4.00  24.375  23.705
   4.50  24.348  23.735
   5.00  24.401  23.705
   5.50  24.375  23.735
   6.00  24.375  23.705
   6.50  24.375  23.735
   7.00  24.348  23.674
   7.50  24.375  23.705
   8.00  24.401  23.705
   8.50  24.401  23.705
   9.00  24.401  23.705
   9.50  24.348  23.705
  10.00  24.401  23.705
  10.50  24.375  23.705
  11.00  24.375  23.705
  11.50  24.375  23.674
  12.00  24.348  23.674
  12.50  24.401  23.705
  13.00  24.375  23.705
  13.50  24.375  23.735
  14.00  24.375  23.735
  14.50  24.375  23.705
  15.00  24.375  23.766
  15.50  24.348  23.705
  16.00  24.348  23.674
  16.50  24.375  23.674
  17.00  24.375  23.705
  17.50  24.401  23.705
  18.00  24.375  23.674
  18.50  24.375  23.674
  19.00  24.348  23.705
  19.50  24.322  23.674
  20.00  24.322  23.705
  20.50  24.375  23.735
  21.00  24.375  23.674
  21.50  24.401  23.674
  22.00  24.348  23.674
  22.50  24.375  23.735
  23.00  24.401  23.705
  23.50  24.401  23.705
  24.00  24.375  23.705
  24.50  24.375  23.674
  25.00  24.401  23.705
  25.50  24.375  23.705
  26.00  24.401  23.674
  26.50  24.375  23.705
  27.00  24.375  23.705
  27.50  24.375  23.674
  28.00  24.375  23.705
  28.50  24.375  23.674
  29.00  24.375  23.705
  29.50  24.375  23.674
  30.00  24.401  23.705
  30.50  24.375  23.674
  31.00  24.401  23.674
  31.50  24.375  23.705
  32.00  24.375  23.705
  32.50  24.375  23.674
  33.00  24.375  23.705
  33.50  24.401  23.705
  34.00  24.427  23.674
  34.50  24.427  23.643
  35.00  24.375  23.705
  35.50  24.375  23.705
  36.00  24.401  23.674
  36.50  24.348  23.705
  37.00  24.401  23.674
  37.50  24.348  23.674
  38.00  24.375  23.705
  38.50  24.348  23.705
  39.00  24.401  23.674
  39.50  24.401  23.674
  40.00  24.401  23.674
  40.50  24.375  23.705
  41.00  24.401  23.705
  41.50  24.375  23.674
  42.00  24.375  23.674
  42.50  24.375  23.674
  43.00  24.375  23.674
  43.50  24.401  23.643
  44.00  24.401  23.705
  44.50  24.375  23.674
  45.00  24.401  23.674
  45.50  24.375  23.674
  46.00  24.375  23.674
  46.50  24.401  23.674
  47.00  24.401  23.674
  47.51  24.427  23.705
  48.01  24.401  23.674
  48.51  24.401  23.705
  49.01  24.401  23.674
  49.51  24.401  23.674
  50.01  24.401  23.705
  50.51  24.401  23.705
  51.01  24.401  23.705
  51.51  24.401  23.674
  52.01  24.401  23.674
  52.51  24.375  23.674
  53.01  24.401  23.674
  53.51  24.401  23.674
  54.01  24.401  23.705
  54.51  24.401  23.674
  55.01  24.375  23.705
  55.51  24.401  23.674
  56.01  24.375  23.705
  56.51  24.401  23.674
  57.01  24.401  23.705
  57.51  24.401  23.643
  58.01  24.375  23.674
  58.51  24.401  23.674
  59.01  24.401  23.674
  59.51  24.427  23.705
  60.01  24.401  23.674
  60.51  24.401  23.674
  61.01  24.453  23.674
  61.51  24.427  23.705
  62.01  24.427  23.705
  62.51  24.375  23.674
  63.01  24.401  23.705
  63.51  24.401  23.766
  64.01  24.401  23.674
  64.51  24.401  23.705
  65.01  24.401  23.705
  65.51  24.427  23.705
  66.01  24.401  23.705
  66.51  24.401  23.674
  67.01  24.401  23.705
  67.51  24.401  23.674
  68.01  24.453  23.705
  68.51  24.401  23.674
  69.01  24.401  23.674
  69.51  24.375  23.674
  70.01  24.401  23.674
  70.51  24.427  23.674
  71.01  24.401  23.674
  71.51  24.401  23.674
  72.01  24.427  23.705
  72.51  24.427  23.643
  73.01  24.427  23.674
  73.51  24.427  23.674
  74.01  24.427  23.674
  74.51  24.375  23.705
  75.01  24.401  23.705
  75.51  24.453  23.705
  76.01  24.427  23.705
  76.51  24.375  23.705
  77.01  24.479  23.674
  77.51  24.401  23.705
  78.01  24.427  23.674
  78.51  24.401  23.643
  79.01  24.427  23.705
  79.51  24.427  23.674
  80.01  24.401  23.674
  80.51  24.453  23.705
  81.01  24.453  23.705
  81.51  24.401  23.705
  82.01  24.427  23.674
  82.51  24.427  23.705
  83.01  24.453  23.705
  83.51  24.427  23.705
  84.01  24.427  23.674
  84.51  24.427  23.674
  85.01  24.453  23.705
  85.51  24.453  23.705
  86.01  24.427  23.705
  86.51  24.427  23.705
  87.01  24.401  23.735
  87.51  24.453  23.674
  88.01  24.401  23.674
  88.51  24.479  23.705
  89.01  24.427  23.674
  89.51  24.453  23.705
  90.01  24.427  23.674
  90.51  24.453  23.705
  91.01  24.427  23.705
  91.51  24.427  23.705
  92.01  24.453  23.705
  92.51  24.427  23.705
  93.01  24.453  23.674
  93.51  24.453  23.643
  94.01  24.479  23.705
  94.51  24.453  23.705
  95.01  24.453  23.705
  95.51  24.453  23.643
  96.01  24.479  23.674
  96.51  24.453  23.705
  97.01  24.453  23.674
  97.51  24.427  23.674
  98.01  24.453  23.674
  98.51  24.453  23.674
  99.01  24.453  23.674
  99.51  24.453  23.705
 100.01  24.453  23.674
 100.51  24.427  23.705
 101.01  24.453  23.735
 101.51  24.453  23.705
 102.01  24.479  23.705
 102.51  24.479  23.705
 103.01  24.479  23.705
 103.51  24.479  23.705
 104.01  24.453  23.735
 104.51  24.479  23.674
 105.01  24.453  23.674
 105.51  24.453  23.674
 106.01  24.453  23.705
 106.51  24.479  23.674
 107.01  24.453  23.705
 107.51  24.453  23.674
 108.01  24.505  23.674
 108.51  24.479  23.674
 109.01  24.505  23.705
 109.51  24.505  23.674
 110.01  24.479  23.674
 110.51  24.479  23.705
 111.01  24.479  23.674
 111.51  24.479  23.674
 112.01  24.453  23.674
 112.51  24.479  23.705
 113.01  24.479  23.674
 113.51  24.479  23.674
 114.01  24.479  23.705
 114.51  24.505  23.705
 115.01  24.479  23.674
 115.51  24.453  23.705
 116.01  24.505  23.674
 116.51  24.479  23.674
 117.01  24.479  23.674
 117.51  24.505  23.674
 118.01  24.479  23.674
 118.51  24.531  23.705
 119.01  24.479  23.643
 119.51  24.505  23.705
 120.01  24.505  23.674
 120.51  24.505  23.674
 121.01  24.479  23.643
 121.51  24.505  23.705
 122.01  24.505  23.674
 122.51  24.479  23.674
 123.01  24.505  23.705
 123.51  24.505  23.674
 124.01  24.505  23.705
 124.51  24.505  23.705
 125.01  24.505  23.705
 125.51  24.505  23.705
 126.01  24.557  23.674
 126.51  24.505  23.705
 127.01  24.505  23.674
 127.51  24.505  23.674
 128.01  24.531  23.674
 128.51  24.479  23.705
 129.01  24.531  23.705
 129.51  24.531  23.674
 130.01  24.531  23.674
 130.51  24.505  23.674
 131.01  24.531  23.643
 131.51  24.531  23.705
 132.01  24.531  23.674
 132.51  24.531  23.674
 133.01  24.557  23.674
 133.51  24.531  23.674
 134.01  24.531  23.705
 134.51  24.505  23.705
 135.01  24.531  23.674
 135.51  24.531  23.674
 136.01  24.505  23.674
 136.51  24.531  23.674
 137.01  24.505  23.674
 137.51  24.531  23.674
 138.01  24.505  23.643
 138.51  24.557  23.705
 139.01  24.557  23.674
 139.51  24.531  23.674
 140.01  24.557  23.705
 140.51  24.531  23.674
 141.01  24.557  23.674
 141.51  24.479  23.705
 142.01  24.531  23.674
 142.51  24.557  23.674
 143.01  24.531  23.674
 143.51  24.557  23.674
 144.01  24.531  23.674
 144.51  24.583  23.674
 145.01  24.531  23.705
 145.51  24.583  23.705
 146.01  24.557  23.705
 146.51  24.557  23.674
 147.01  24.531  23.643
 147.51  24.583  23.674
 148.01  24.557  23.674
 148.51  24.583  23.735
 149.01  24.557  23.643
 149.51  24.583  23.705
 150.01  24.557  23.643
 150.51  24.583  23.612
 151.01  24.531  23.705
 151.51  24.557  23.674
 152.01  24.557  23.674
 152.51  24.557  23.735
 153.01  24.557  23.674
 153.51  24.583  23.674
 154.01  24.557  23.674
 154.51  24.531  23.674
 155.01  24.557  23.674
 155.51  24.531  23.674
 156.01  24.557  23.674
 156.51  24.583  23.705
 157.01  24.583  23.705
 157.51  24.583  23.674
 158.01  24.583  23.643
 158.51  24.583  23.674
 159.01  24.610  23.674
 159.51  24.557  23.674
 160.01  24.583  23.705
 160.51  24.583  23.643
 161.01  24.583  23.674
 161.51  24.557  23.766
 162.01  24.583  23.643
 162.51  24.583  23.674
 163.01  24.583  23.705
 163.51  24.583  23.674
 164.01  24.583  23.705
 164.51  24.610  23.674
 165.01  24.610  23.674
 165.51  24.583  23.674
 166.01  24.583  23.674
 166.51  24.610  23.674
 167.01  24.636  23.674
 167.51  24.583  23.674
 168.01  24.583  23.674
 168.51  24.610  23.674
 169.01  24.583  23.674
 169.51  24.583  23.674
 170.01  24.583  23.674
 170.51  24.583  23.674
 171.01  24.610  23.674
 171.52  24.583  23.674
 172.02  24.610  23.674
 172.52  24.662  23.674
 173.02  24.583  23.674
 173.52  24.610  23.643
 174.02  24.610  23.674
 174.52  24.610  23.674
 175.02  24.610  23.705
 175.52  24.583  23.643
 176.02  24.583  23.674
 176.52  24.610  23.674
 177.02  24.610  23.674
 177.52  24.636  23.674
 178.02  24.610  23.612
 178.52  24.610  23.674
 179.02  24.636  23.674
 179.52  24.583  23.674
 180.02  24.610  23.674
 180.52  24.583  23.674
 181.02  24.636  23.674
 181.52  24.610  23.705
 182.02  24.636  23.674
 182.52  24.610  23.674
 183.02  24.636  23.643
 183.52  24.636  23.643
 184.02  24.583  23.674
 184.52  24.610  23.674
 185.02  24.636  23.674
 185.52  24.636  23.705
 186.02  24.610  23.643
 186.52  24.610  23.643
 187.02  24.636  23.643
 187.52  24.636  23.674
 188.02  24.636  23.674
 188.52  24.662  23.674
 189.02  24.610  23.674
 189.52  24.610  23.674
 190.02  24.636  23.674
 190.52  24.583  23.674
 191.02  24.636  23.643
 191.52  24.636  23.674
 192.02  24.636  23.674
 192.52  24.636  23.705
 193.02  24.636  23.674
 193.52  24.636  23.674
 194.02  24.662  23.674
 194.52  24.636  23.674
 195.02  24.636  23.674
 195.52  24.662  23.674
 196.02  24.662  23.643
 196.52  24.636  23.674
 197.02  24.714  23.643
 197.52  24.662  23.705
 198.02  24.610  23.674
 198.52  24.662  23.674
 199.02  24.636  23.674
 199.52  24.636  23.674
 200.02  24.636  23.643
 200.52  24.662  23.674
 201.02  24.636  23.674
 201.52  24.636  23.705
 202.02  24.636  23.643
 202.52  24.662  23.674
 203.02  24.662  23.705
 203.52  24.688  23.674
 204.02  24.636  23.643
 204.52  24.636  23.674
 205.02  24.662  23.705
 205.52  24.688  23.674
 206.02  24.688  23.674
 206.52  24.662  23.674
 207.02  24.688  23.674
 207.52  24.662  23.643
 208.02  24.688  23.674
 208.52  24.688  23.643
 209.02  24.688  23.643
 209.52  24.662  23.674
 210.02  24.688  23.643
 210.52  24.662  23.674
 211.02  24.662  23.674
 211.52  24.662  23.643
 212.02  24.662  23.643
 212.52  24.688  23.705
 213.02  24.714  23.674
 213.52  24.662  23.643
 214.02  24.688  23.674
 214.52  24.688  23.674
 215.02  24.688  23.674
 215.52  24.714  23.643
 216.02  24.688  23.674
 216.52  24.714  23.674
 217.02  24.688  23.674
 217.52  24.688  23.674
 218.02  24.714  23.674
 218.52  24.688  23.674
 219.02  24.688  23.674
 219.52  24.714  23.643
 220.02  24.714  23.643
 220.52  24.714  23.674
 221.02  24.688  23.705
 221.52  24.740  23.643
 222.02  24.688  23.674
 222.52  24.714  23.735
 223.02  24.714  23.674
 223.52  24.688  23.674
 224.02  24.740  23.674
 224.52  24.740  23.674
 225.02  24.688  23.674
 225.52  24.714  23.674
 226.02  24.714  23.643
 226.52  24.714  23.643
 227.02  24.714  23.674
 227.52  24.740  23.674
 228.02  24.714  23.674
 228.52  24.740  23.674
 229.02  24.740  23.674
 229.52  24.714  23.643
 230.02  24.688  23.674
 230.52  24.740  23.674
 231.02  24.714  23.674
 231.52  24.740  23.674
 232.02  24.688  23.674
 232.52  24.740  23.612
 233.02  24.714  23.643
 233.52  24.740  23.674
 234.02  24.740  23.674
 234.52  24.740  23.674
 235.02  24.766  23.705
 235.52  24.714  23.705
 236.02  24.714  23.705
 236.52  24.740  23.674
 237.02  24.714  23.674
 237.52  24.766  23.674
 238.02  24.740  23.674
 238.52  24.740  23.674
 239.02  24.766  23.612
 239.52  24.740  23.674
 240.02  24.740  23.643
 240.52  24.766  23.674
 241.02  24.740  23.705
 241.52  24.740  23.705
 242.02  24.740  23.705
 242.52  24.740  23.705
 243.02  24.766  23.643
 243.52  24.740  23.674
 244.02  24.714  23.674
 244.52  24.740  23.674
 245.02  24.740  23.735
 245.52  24.740  23.643
 246.02  24.740  23.735
 246.52  24.740  23.674
 247.02  24.714  23.705
 247.52  24.740  23.612
 248.02  24.792  23.674
 248.52  24.766  23.674
 249.02  24.740  23.674
 249.52  24.740  23.705
 250.02  24.740  23.674
 250.52  24.792  23.674
 251.02  24.766  23.674
 251.52  24.792  23.674
 252.02  24.714  23.674
 252.52  24.766  23.674
 253.02  24.766  23.674
 253.52  24.792  23.674
 254.02  24.792  23.674
 254.52  24.792  23.643
 255.02  24.766  23.674
 255.52  24.766  23.674
 256.02  24.766  23.674
 256.52  24.766  23.674
 257.02  24.792  23.674
 257.52  24.792  23.674
 258.02  24.766  23.612
 258.52  24.792  23.674
 259.02  24.766  23.674
 259.52  24.792  23.705
 260.02  24.740  23.674
 260.52  24.766  23.674
 261.02  24.792  23.674
 261.52  24.792  23.674
 262.02  24.792  23.674
 262.52  24.792  23.674
 263.02  24.766  23.674
 263.52  24.792  23.674
 264.02  24.766  23.674
 264.52  24.792  23.674
 265.02  24.792  23.705
 265.52  24.792  23.674
 266.02  24.792  23.674
 266.52  24.792  23.674
 267.02  24.819  23.705
 267.52  24.792  23.674
 268.02  24.766  23.674
 268.52  24.819  23.674
 269.02  24.792  23.674
 269.52  24.792  23.674
 270.02  24.819  23.674
 270.52  24.819  23.705
 271.02  24.845  23.674
 271.52  24.819  23.674
 272.02  24.819  23.674
 272.52  24.792  23.705
 273.02  24.819  23.674
 273.52  24.792  23.643
 274.02  24.819  23.674
 274.52  24.819  23.705
 275.02  24.845  23.674
 275.52  24.819  23.674
 276.02  24.845  23.705
 276.52  24.819  23.643
 277.02  24.819  23.674
 277.52  24.819  23.674
 278.02  24.819  23.674
 278.52  24.819  23.674
 279.02  24.845  23.643
 279.52  24.792  23.705
 280.02  24.819  23.674
 280.52  24.845  23.674
 281.02  24.845  23.643
 281.52  24.819  23.643
 282.02  24.819  23.674
 282.52  24.845  23.674
 283.02  24.766  23.674
 283.52  24.845  23.674
 284.02  24.819  23.674
 284.52  24.819  23.674
 285.03  24.845  23.705
 285.53  24.819  23.674
 286.03  24.845  23.643
 286.53  24.819  23.674
 287.03  24.871  23.705
 287.53  24.845  23.674
 288.03  24.819  23.674
 288.53  24.819  23.705
 289.03  24.845  23.643
 289.53  24.819  23.705
 290.03  24.845  23.674
 290.53  24.871  23.643
 291.03  24.871  23.705
 291.53  24.845  23.674
 292.03  24.845  23.674
 292.53  24.845  23.674
 293.03  24.845  23.674
 293.53  24.845  23.643
 294.03  24.871  23.705
 294.53  24.871  23.674
 295.03  24.845  23.643
 295.53  24.897  23.705
 296.03  24.845  23.674
 296.53  24.923  23.674
 297.03  24.819  23.612
 297.53  24.845  23.674
 298.03  24.845  23.674
 298.53  24.845  23.674
 299.03  24.871  23.705
 299.53  24.845  23.612
 300.03  24.845  23.674
 300.53  24.871  23.705
 301.03  24.845  23.674
 301.53  24.871  23.674
 302.03  24.845  23.674
 302.53  24.871  23.643
 303.03  24.845  23.674
 303.53  24.845  23.643
 304.03  24.871  23.643
 304.53  24.871  23.674
 305.03  24.845  23.674
 305.53  24.897  23.674
 306.03  24.897  23.674
 306.53  24.923  23.674
 307.03  24.923  23.705
 307.53  24.897  23.674
 308.03  24.871  23.674
 308.53  24.871  23.643
 309.03  24.897  23.705
 309.53  24.871  23.643
 310.03  24.871  23.674
 310.53  24.871  23.674
 311.03  24.897  23.643
 311.53  24.897  23.705
 312.03  24.897  23.643
 312.53  24.871  23.674
 313.03  24.923  23.674
 313.53  24.871  23.674
 314.03  24.923  23.643
 314.53  24.897  23.705
 315.03  24.897  23.674
 315.53  24.897  23.674
 316.03  24.897  23.674
 316.53  24.897  23.643
 317.03  24.897  23.674
 317.53  24.923  23.674
 318.03  24.897  23.674
 318.53  24.897  23.735
 319.03  24.923  23.705
 319.53  24.897  23.674
 320.03  24.923  23.674
 320.53  24.923  23.674
 321.03  24.897  23.674
 321.53  24.897  23.674
 322.03  24.897  23.674
 322.53  24.897  23.705
 323.03  24.897  23.674
 323.53  24.923  23.674
 324.03  24.923  23.674
 324.53  24.923  23.674
 325.03  24.897  23.674
 325.53  24.871  23.643
 326.03  24.923  23.705
 326.53  24.923  23.674
 327.03  24.949  23.674
 327.53  24.897  23.643
 328.03  24.923  23.674
 328.53  24.897  23.674
 329.03  24.923  23.612
 329.53  24.897  23.674
 330.03  24.923  23.643
 330.53  24.923  23.674
 331.03  24.897  23.674
 331.53  24.949  23.674
 332.03  24.923  23.674
 332.53  24.949  23.705
 333.03  24.949  23.674
 333.53  24.923  23.643
 334.03  24.897  23.674
 334.53  24.923  23.674
 335.03  24.923  23.643
 335.53  24.949  23.674
 336.03  24.949  23.674
 336.53  24.897  23.674
 337.03  24.949  23.705
 337.53  24.897  23.674
 338.03  24.871  23.674
 338.53  24.897  23.674
 339.03  24.923  23.674
 339.53  24.923  23.643
 340.03  24.897  23.674
 340.53  24.923  23.674
 341.03  24.949  23.674
 341.53  24.923  23.705
 342.03  24.923  23.674
 342.53  24.949  23.643
 343.03  24.949  23.674
 343.53  24.949  23.643
 344.03  24.975  23.643
 344.53  24.923  23.643
 345.03  24.949  23.674
 345.53  24.897  23.643
 346.03  24.975  23.643
 346.53  24.949  23.674
 347.03  24.923  23.643
 347.53  24.923  23.674
 348.03  24.949  23.705
 348.53  24.923  23.643
 349.03  24.949  23.643
 349.53  24.949  23.674
 350.03  24.949  23.674
 350.53  24.975  23.674
 351.03  24.949  23.674
 351.53  24.923  23.674
 352.03  24.975  23.674
 352.53  24.949  23.674
 353.03  24.949  23.674
 353.53  24.949  23.674
 354.03  24.975  23.643
 354.53  24.975  23.705
 355.03  24.975  23.674
 355.53  24.923  23.674
 356.03  24.949  23.674
 356.53  24.949  23.674
 357.03  24.949  23.674
 357.53  24.975  23.643
 358.03  24.975  23.674
 358.53  24.975  23.674
 359.03  24.949  23.674
 359.53  24.975  23.643
 360.03  24.949  23.705
 360.53  24.949  23.674
 361.03  25.005  23.674
 361.53  24.975  23.643
 362.03  24.975  23.735
 362.53  25.005  23.674
 363.03  25.005  23.705
 363.53  24.949  23.705
 364.03  25.005  23.705
 364.53  24.975  23.674
 365.03  24.975  23.674
 365.53  24.975  23.674
 366.03  24.975  23.674
 366.53  24.975  23.705
 367.03  24.975  23.674
 367.53  24.975  23.674
 368.03  24.975  23.643
 368.53  24.949  23.674
 369.03  24.975  23.705
 369.53  24.975  23.705
 370.03  24.975  23.674
 370.53  25.005  23.674
 371.03  25.114  23.674
 371.53  24.975  23.674
 372.03  24.975  23.674
 372.53  24.975  23.674
 373.03  25.114  23.643
 373.53  25.005  23.674
 374.03  25.114  23.674
 374.53  25.114  23.674
 375.03  24.975  23.674
 375.53  25.114  23.674
 376.03  25.005  23.674
 376.53  25.005  23.674
 377.03  25.114  23.705
 377.53  25.005  23.674
 378.03  25.005  23.674
 378.53  25.005  23.674
 379.03  25.005  23.643
 379.53  24.975  23.705
 380.03  24.975  23.674
 380.53  24.975  23.643
 381.03  25.005  23.674
 381.53  25.114  23.643
 382.03  25.114  23.674
 382.53  25.005  23.674
 383.03  25.005  23.643
 383.53  25.005  23.674
 384.03  25.005  23.674
 384.53  25.005  23.674
 385.03  25.005  23.643
 385.53  25.005  23.674
 386.03  25.005  23.674
 386.53  25.114  23.643
 387.04  25.005  23.674
 387.54  25.005  23.612
 388.04  25.005  23.643
 388.54  25.114  23.643
 389.04  25.005  23.705
 389.54  25.114  23.674
 390.04  25.114  23.612
 390.54  25.114  23.674
 391.04  25.114  23.705
 391.54  25.114  23.674
 392.04  25.005  23.643
 392.54  25.005  23.643
 393.04  25.005  23.643
 393.54  25.114  23.674
 394.04  25.222  23.674
 394.54  25.222  23.674
 395.04  25.114  23.674
 395.54  25.005  23.674
 396.04  25.005  23.705
 396.54  25.114  23.643
 397.04  25.114  23.674
 397.54  25.114  23.674
 398.04  25.222  23.674
 398.54  25.005  23.643
 399.04  25.114  23.705
 399.54  25.114  23.674
 400.04  25.222  23.674
 400.54  25.222  23.674
 401.04  25.330  23.643
 401.54  25.114  23.674
 402.04  25.114  23.674
 402.54  25.114  23.612
 403.04  25.005  23.674
 403.54  25.222  23.674
 404.04  25.222  23.674
 404.54  25.114  23.612
 405.04  25.222  23.643
 405.54  25.222  23.643
 406.04  25.222  23.674
 406.54  25.222  23.674
 407.04  25.114  23.643
 407.54  25.005  23.674
 408.04  25.114  23.674
 408.54  25.114  23.674
 409.04  25.222  23.643
 409.54  25.222  23.674
 410.04  25.222  23.674
 410.54  25.114  23.674
 411.04  25.222  23.674
 411.54  25.222  23.643
 412.04  25.114  23.674
 412.54  25.330  23.705
 413.04  25.222  23.674
 413.54  25.330  23.643
 414.04  25.222  23.674
 414.54  25.222  23.643
 415.04  25.222  23.643
 415.54  25.330  23.674
 416.04  25.330  23.674
 416.54  25.330  23.674
 417.04  25.330  23.674
 417.54  25.222  23.674
 418.04  25.222  23.643
 418.54  25.222  23.674
 419.04  25.222  23.705
 419.54  25.222  23.674
 420.04  25.222  23.674
 420.54  25.330  23.674
 421.04  25.222  23.643
 421.54  25.222  23.674
 422.04  25.330  23.643
 422.54  25.330  23.674
 423.04  25.222  23.674
 423.54  25.330  23.674
 424.04  25.222  23.674
 424.54  25.330  23.674
 425.04  25.438  23.674
 425.54  25.330  23.674
 426.04  25.330  23.674
 426.54  25.222  23.674
 427.04  25.330  23.705
 427.54  25.330  23.674
 428.04  25.330  23.643
 428.54  25.330  23.643
 429.04  25.438  23.674
 429.54  25.330  23.674
 430.04  25.330  23.643
 430.54  25.438  23.643
 431.04  25.330  23.674
 431.54  25.330  23.643
 432.04  25.330  23.643
 432.54  25.330  23.674
 433.04  25.330  23.674
 433.54  25.330  23.674
 434.04  25.438  23.674
 434.54  25.330  23.643
 435.04  25.330  23.643
 435.54  25.438  23.643
 436.04  25.330  23.705
 436.54  25.330  23.674
 437.04  25.330  23.674
 437.54  25.438  23.612
 438.04  25.438  23.643
 438.54  25.330  23.674
 439.04  25.222  23.612
 439.54  25.330  23.643
 440.04  25.438  23.643
 440.54  25.330  23.674
 441.04  25.438  23.643
 441.54  25.438  23.674
 442.04  25.438  23.643
 442.54  25.330  23.705
 443.04  25.330  23.643
 443.54  25.438  23.674
 444.04  25.438  23.643
 444.54  25.330  23.581
 445.04  25.438  23.643
 445.54  25.438  23.674
 446.04  25.438  23.705
 446.54  25.438  23.643
 447.04  25.438  23.643
 447.54  25.438  23.674
 448.04  25.438  23.674
 448.54  25.438  23.674
 449.04  25.547  23.705
 449.54  25.330  23.643
 450.04  25.547  23.674
 450.54  25.438  23.643
 451.04  25.547  23.674
 451.54  25.438  23.674
 452.04  25.438  23.705
 452.54  25.547  23.674
 453.04  25.438  23.674
 453.54  25.438  23.674
 454.04  25.438  23.643
 454.54  25.438  23.674
 455.04  25.547  23.674
 455.54  25.438  23.674
 456.04  25.980  23.674
 456.54  25.655  23.674
 457.04  25.547  23.674
 457.54  25.330  23.643
 458.04  25.438  23.643
 458.54  25.438  23.674
 459.04  25.655  23.643
 459.54  25.547  23.705
 460.04  25.330  23.643
 460.54  25.438  23.643
 461.04  25.547  23.643
 461.54  25.547  23.674
 462.04  25.547  23.705
 462.54  25.547  23.674
 463.04  25.547  23.643
 463.54  25.547  23.674
 464.04  25.547  23.705
 464.54  25.655  23.674
 465.04  25.547  23.674
 465.54  25.547  23.674
 466.04  25.655  23.674
 466.54  25.547  23.674
 467.04  25.547  23.674
 467.54  25.655  23.643
 468.04  25.655  23.643
 468.54  25.547  23.674
 469.04  25.655  23.674
 469.54  25.655  23.674
 470.04  25.547  23.643
 470.54  25.655  23.643
 471.04  25.655  23.643
 471.54  25.655  23.674
 472.04  25.547  23.643
 472.54  25.655  23.643
 473.04  25.763  23.674
 473.54  25.655  23.674
 474.04  25.655  23.643
 474.54  25.655  23.674
 475.04  25.763  23.674
 475.54  25.655  23.674
 476.04  25.655  23.643
 476.54  25.655  23.643
 477.04  25.655  23.674
 477.54  25.655  23.674
 478.04  25.655  23.674
 478.54  25.547  23.674
 479.04  25.655  23.643
 479.54  25.547  23.643
 480.04  25.655  23.643
 480.54  25.438  23.705
 481.04  25.655  23.674
 481.54  25.655  23.674
 482.04  25.655  23.674
 482.54  25.547  23.643
 483.04  25.655  23.643
 483.54  25.763  23.674
 484.04  25.547  23.674
 484.54  25.655  23.674
 485.04  25.655  23.643
 485.54  25.655  23.643
 486.04  25.655  23.643
 486.54  25.655  23.674
 487.04  25.655  23.643
 487.54  25.655  23.674
 488.04  25.655  23.674
 488.54  25.655  23.674
 489.04  25.655  23.643
 489.54  25.655  23.674
 490.04  25.655  23.643
 490.54  25.655  23.674
 491.04  25.655  23.674
 491.54  25.655  23.643
 492.04  25.655  23.643
 492.54  25.763  23.674
 493.04  25.871  23.612
 493.54  25.655  23.643
 494.04  25.655  23.674
 494.54  25.655  23.643
 495.04  25.763  23.612
 495.54  25.763  23.674
 496.04  25.655  23.643
 496.54  25.763  23.674
 497.04  25.655  23.705
 497.54  25.763  23.674
 498.04  25.763  23.674
 498.54  25.763  23.643
 499.04  25.655  23.643
 499.54  25.655  23.674
 500.04  25.763  23.674
 500.55  25.871  23.674
 501.05  25.763  23.674
 501.55  25.763  23.643
 502.05  25.763  23.643
 502.55  25.763  23.643
 503.05  25.763  23.674
 503.55  25.763  23.674
 504.05  25.763  23.674
 504.55  25.763  23.674
 505.05  25.763  23.674
 505.55  25.763  23.643
 506.05  25.763  23.674
 506.55  25.655  23.674
 507.05  25.871  23.705
 507.55  25.871  23.674
 508.05  25.871  23.674
 508.55  25.871  23.674
 509.05  25.871  23.674
 509.55  25.655  23.674
 510.05  25.980  23.705
 510.55  25.763  23.643
 511.05  25.763  23.674
 511.55  25.763  23.674
 512.05  25.871  23.674
 512.55  25.763  23.674
 513.05  25.871  23.643
 513.55  25.980  23.674
 514.05  25.980  23.674
 514.55  25.871  23.643
 515.05  25.871  23.674
 515.55  25.763  23.674
 516.05  25.871  23.643
 516.55  25.763  23.674
 517.05  25.763  23.705
 517.55  25.871  23.705
 518.05  25.871  23.643
 518.55  25.980  23.674
 519.05  25.871  23.643
 519.55  25.871  23.643
 520.05  25.871  23.674
 520.55  25.871  23.612
 521.05  25.871  23.674
 521.55  25.763  23.643
 522.05  25.871  23.643
 522.55  25.871  23.643
 523.05  25.871  23.643
 523.55  25.980  23.643
 524.05  25.871  23.674
 524.55  25.871  23.674
 525.05  25.871  23.674
 525.55  25.980  23.643
 526.05  25.763  23.643
 526.55  25.871  23.643
 527.05  25.871  23.674
 527.55  25.871  23.612
 528.05  25.980  23.643
 528.55  25.980  23.674
 529.05  25.871  23.612
 529.55  25.980  23.674
 530.05  25.871  23.674
 530.55  25.871  23.674
 531.05  25.871  23.674
 531.55  25.980  23.674
 532.05  25.871  23.674
 532.55  25.871  23.674
 533.05  25.871  23.674
 533.55  25.871  23.674
 534.05  25.980  23.674
 534.55  25.871  23.674
 535.05  25.980  23.643
 535.55  25.871  23.674
 536.05  25.871  23.674
 536.55  25.980  23.674
 537.05  25.871  23.674
 537.55  25.980  23.643
 538.05  25.980  23.643
 538.55  25.763  23.674
 539.05  25.980  23.643
 539.55  25.871  23.674
 540.05  25.980  23.674
 540.55  25.980  23.643
 541.05  26.088  23.643
 541.55  25.980  23.674
 542.05  26.088  23.674
 542.55  25.980  23.674
 543.05  25.980  23.674
 543.55  25.980  23.674
 544.05  25.980  23.674
 544.55  26.196  23.674
 545.05  25.871  23.674
 545.55  25.980  23.643
 546.05  25.980  23.674
 546.55  25.980  23.674
 547.05  26.088  23.612
 547.55  26.196  23.612
 548.05  25.980  23.612
 548.55  25.980  23.643
 549.05  25.980  23.674
 549.55  26.088  23.705
 550.05  25.980  23.674
 550.55  25.980  23.674
 551.05  26.088  23.674
 551.55  25.980  23.612
 552.05  25.980  23.705
 552.55  25.980  23.674
 553.05  25.980  23.643
 553.55  25.980  23.612
 554.05  25.980  23.674
 554.55  26.088  23.643
 555.05  26.088  23.643
 555.55  26.088  23.705
 556.05  25.980  23.705
 556.55  25.980  23.643
 557.05  26.088  23.674
 557.55  25.871  23.643
 558.05  26.088  23.643
 558.55  26.088  23.643
 559.05  26.088  23.674
 559.55  25.980  23.674
 560.05  26.088  23.643
 560.55  26.088  23.674
 561.05  26.196  23.674
 561.55  26.304  23.674
 562.05  26.088  23.643
 562.55  26.088  23.674
 563.05  26.196  23.643
 563.55  25.980  23.674
 564.05  26.088  23.643
 564.55  26.088  23.643
 565.05  26.196  23.674
 565.55  26.088  23.674
 566.05  26.196  23.674
 566.55  26.088  23.674
 567.05  26.088  23.674
 567.55  26.088  23.674
 568.05  26.196  23.674
 568.55  25.980  23.643
 569.05  26.088  23.612
 569.55  26.088  23.674
 570.05  26.088  23.643
 570.55  26.088  23.705
 571.05  26.196  23.674
 571.55  26.088  23.643
 572.05  26.196  23.643
 572.55  26.196  23.674
 573.05  26.088  23.674
 573.55  26.196  23.674
 574.05  26.196  23.674
 574.55  26.088  23.643
 575.05  26.196  23.674
 575.55  26.196  23.674
 576.05  26.196  23.643
 576.55  26.196  23.674
 577.05  26.196  23.643
 577.55  26.196  23.674
 578.05  26.196  23.674
 578.55  26.088  23.674
 579.05  26.304  23.674
 579.55  26.196  23.643
 580.05  26.088  23.674
 580.55  26.196  23.674
 581.05  26.088  23.674
 581.55  26.196  23.674
 582.05  26.196  23.643
 582.55  26.088  23.643
 583.05  26.196  23.643
 583.55  26.196  23.643
 584.05  26.196  23.612
 584.55  26.196  23.643
 585.05  26.413  23.674
 585.55  26.196  23.643
 586.05  26.304  23.643
 586.55  26.196  23.674
 587.05  26.196  23.612
 587.55  26.196  23.643
 588.05  26.196  23.643
 588.55  26.196  23.643
 589.05  26.196  23.674
 589.55  26.304  23.643
 590.05  26.196  23.643
 590.55  26.196  23.643
 591.05  26.304  23.674
 591.55  26.304  23.674
 592.05  26.196  23.705
 592.55  26.196  23.674
 593.05  26.304  23.612
 593.55  26.304  23.674
 594.05  26.304  23.674
 594.55  26.413  23.643
 595.05  26.196  23.643
 595.55  26.196  23.643
 596.05  26.196  23.674
 596.55  26.304  23.643
 597.05  26.304  23.643
 597.55  26.304  23.643
 598.05  26.304  23.643
 598.55  26.196  23.643
 599.05  26.196  23.643
 599.55  26.196  23.705
 600.05  26.304  23.643
 600.55  26.304  23.674
 601.05  26.304  23.674
 601.55  26.304  23.674
 602.05  26.304  23.674
 602.55  26.196  23.674
 603.05  26.304  23.643
 603.55  26.304  23.674
 604.05  26.304  23.674
 604.55  26.304  23.674
 605.05  26.304  23.643
 605.55  26.304  23.674
 606.05  26.304  23.674
 606.55  26.304  23.643
 607.05  26.413  23.674
 607.55  26.304  23.674
 608.05  26.413  23.674
 608.55  26.304  23.674
 609.05  26.196  23.643
 609.55  26.304  23.612
 610.05  26.413  23.643
 610.55  26.304  23.643
 611.05  26.304  23.674
 611.55  26.521  23.643
 612.05  26.304  23.674
 612.55  26.413  23.643
 613.05  26.413  23.643
 613.55  26.304  23.581
 614.05  26.304  23.674
 614.55  26.413  23.643
 615.05  26.413  23.705
 615.55  26.304  23.643
 616.05  26.304  23.643
 616.55  26.304  23.643
 617.05  26.413  23.643
 617.55  26.304  23.643
 618.05  26.413  23.674
 618.55  26.304  23.643
 619.05  26.304  23.674
 619.55  26.304  23.674
 620.05  26.196  23.643
 620.55  26.413  23.643
 621.05  26.413  23.643
 621.55  26.304  23.643
 622.05  26.413  23.674
 622.55  26.413  23.674
 623.05  26.304  23.643
 623.55  26.413  23.705
 624.05  26.413  23.674
 624.56  26.521  23.674
 625.06  26.304  23.643
 625.56  26.521  23.674
 626.06  26.413  23.643
 626.56  26.304  23.735
 627.06  26.413  23.643
 627.56  26.413  23.674
 628.06  26.413  23.705
 628.56  26.304  23.612
 629.06  26.413  23.643
 629.56  26.413  23.674
 630.06  26.521  23.643
 630.56  26.413  23.735
 631.06  26.521  23.674
 631.56  26.521  23.674
 632.06  26.413  23.674
 632.56  26.521  23.643
 633.06  26.413  23.674
 633.56  26.413  23.643
 634.06  26.521  23.674
 634.56  26.521  23.674
 635.06  26.413  23.643
 635.56  26.413  23.674
 636.06  26.413  23.674
 636.56  26.413  23.705
 637.06  26.521  23.674
 637.56  26.413  23.643
 638.06  26.413  23.643
 638.56  26.521  23.674
 639.06  26.521  23.643
 639.56  26.521  23.643
 640.06  26.521  23.643
 640.56  26.521  23.643
 641.06  26.521  23.705
 641.56  26.521  23.643
 642.06  26.413  23.674
 642.56  26.413  23.674
 643.06  26.737  23.643
 643.56  26.413  23.674
 644.06  26.521  23.643
 644.56  26.521  23.643
 645.06  26.521  23.674
 645.56  26.521  23.643
 646.06  26.521  23.643
 646.56  26.413  23.643
 647.06  26.521  23.643
 647.56  26.521  23.674
 648.06  26.521  23.674
 648.56  26.413  23.643
 649.06  26.629  23.643
 649.56  26.521  23.643
 650.06  26.521  23.674
 650.56  26.521  23.674
 651.06  26.629  23.612
 651.56  26.629  23.705
 652.06  26.521  23.674
 652.56  26.413  23.674
 653.06  26.521  23.674
 653.56  26.521  23.674
 654.06  26.521  23.643
 654.56  26.521  23.643
 655.06  26.521  23.674
 655.56  26.629  23.643
 656.06  26.629  23.674
 656.56  26.521  23.674
 657.06  26.521  23.643
 657.56  26.521  23.643
 658.06  26.521  23.705
 658.56  26.521  23.643
 659.06  26.521  23.643
 659.56  26.629  23.735
 660.06  26.629  23.674
 660.56  26.629  23.705
 661.06  26.629  23.643
 661.56  26.521  23.674
 662.06  26.629  23.643
 662.56  26.521  23.674
 663.06  26.629  23.674
 663.56  26.521  23.643
 664.06  26.737  23.643
 664.56  26.521  23.643
 665.06  26.629  23.643
 665.56  26.629  23.674
 666.06  26.737  23.643
 666.56  26.629  23.643
 667.06  26.521  23.612
 667.56  26.629  23.643
 668.06  26.629  23.674
 668.56  26.629  23.674
 669.06  26.737  23.643
 669.56  26.629  23.643
 670.06  26.521  23.674
 670.56  26.629  23.643
 671.06  26.629  23.674
 671.56  26.629  23.643
 672.06  26.629  23.612
 672.56  26.629  23.643
 673.06  26.737  23.674
 673.56  26.629  23.643
 674.06  26.629  23.674
 674.56  26.629  23.643
 675.06  26.737  23.705
 675.56  26.629  23.705
 676.06  26.521  23.705
 676.56  26.629  23.674
 677.06  26.629  23.674
 677.56  26.629  23.674
 678.06  26.629  23.674
 678.56  26.521  23.674
 679.06  26.629  23.643
 679.56  26.629  23.674
 680.06  26.629  23.705
 680.56  26.629  23.674
 681.06  26.737  23.643
 681.56  26.629  23.674
 682.06  26.737  23.674
 682.56  26.629  23.674
 683.06  26.629  23.705
 683.56  26.629  23.674
 684.06  26.629  23.674
 684.56  26.521  23.674
 685.06  26.629  23.643
 685.56  26.737  23.643
 686.06  26.629  23.643
 686.56  26.737  23.674
 687.06  26.737  23.643
 687.56  26.737  23.643
 688.06  26.737  23.674
 688.56  26.629  23.674
 689.06  26.629  23.643
 689.56  26.737  23.674
 690.06  26.629  23.643
 690.56  26.737  23.643
 691.06  26.737  23.643
 691.56  26.846  23.674
 692.06  26.737  23.643
 692.56  26.737  23.674
 693.06  26.629  23.643
 693.56  26.629  23.643
 694.06  26.737  23.705
 694.56  26.737  23.705
 695.06  26.737  23.674
 695.56  26.737  23.674
 696.06  26.737  23.674
 696.56  26.737  23.643
 697.06  26.737  23.674
 697.56  26.737  23.674
 698.06  26.737  23.674
 698.56  26.737  23.674
 699.06  26.846  23.705
 699.56  26.737  23.674
 700.06  26.737  23.674
 700.56  26.737  23.674
 701.06  26.737  23.643
 701.56  26.737  23.643
 702.06  26.737  23.643
 702.56  26.846  23.705
 703.06  26.737  23.674
 703.56  26.737  23.643
 704.06  26.737  23.674
 704.56  26.737  23.674
 705.06  26.737  23.674
 705.56  26.846  23.674
 706.06  26.737  23.643
 706.56  26.737  23.643
 707.06  26.846  23.674
 707.56  26.846  23.643
 708.06  26.737  23.643
 708.56  26.737  23.674
 709.06  26.737  23.674
 709.56  26.846  23.643
 710.06  26.846  23.643
 710.56  26.737  23.643
 711.06  26.737  23.674
 711.56  26.846  23.643
 712.06  26.737  23.643
 712.56  26.846  23.612
 713.06  26.737  23.735
 713.56  26.737  23.705
 714.06  26.954  23.674
 714.56  26.846  23.643
 715.06  26.846  23.674
 715.56  26.846  23.674
 716.06  26.846  23.705
 716.56  26.737  23.643
 717.06  26.846  23.674
 717.56  26.846  23.674
 718.06  26.846  23.674
 718.56  26.737  23.674
 719.06  26.846  23.674
 719.56  26.954  23.643
 720.06  26.737  23.643
 720.56  26.846  23.674
 721.06  26.954  23.643
 721.56  26.954  23.643
 722.06  26.954  23.674
 722.56  26.737  23.674
 723.06  26.846  23.643
 723.56  26.954  23.643
 724.06  26.846  23.643
 724.56  26.737  23.674
 725.06  26.846  23.643
 725.56  26.846  23.612
 726.06  26.737  23.674
 726.57  26.846  23.643
 727.07  26.846  23.643
 727.57  26.846  23.674
 728.07  26.846  23.674
 728.57  26.846  23.674
 729.07  26.846  23.674
 729.57  26.954  23.643
 730.07  26.846  23.643
 730.57  26.846  23.643
 731.07  26.846  23.643
 731.57  26.954  23.674
 732.07  26.846  23.674
 732.57  26.737  23.674
 733.07  26.846  23.643
 733.57  26.846  23.643
 734.07  26.846  23.674
 734.57  26.737  23.705
 735.07  26.954  23.674
 735.57  26.846  23.643
 736.07  26.846  23.674
 736.57  26.846  23.674
 737.07  26.846  23.674
 737.57  26.954  23.674
 738.07  26.846  23.643
 738.57  26.846  23.674
 739.07  26.954  23.674
 739.57  26.846  23.674
 740.07  26.954  23.643
 740.57  27.062  23.674
 741.07  26.954  23.674
 741.57  26.846  23.674
 742.07  26.954  23.674
 742.57  26.846  23.705
 743.07  26.954  23.705
 743.57  26.954  23.674
 744.07  26.954  23.674
 744.57  26.846  23.705
 745.07  26.954  23.674
 745.57  26.954  23.674
 746.07  26.954  23.735
 746.57  26.846  23.674
 747.07  27.062  23.643
 747.57  26.846  23.674
 748.07  26.954  23.705
 748.57  26.954  23.674
 749.07  26.954  23.674
 749.57  26.954  23.674
 750.07  26.954  23.643
 750.57  26.954  23.674
 751.07  26.954  23.643
 751.57  26.954  23.674
 752.07  26.954  23.674
 752.57  26.846  23.674
 753.07  26.954  23.705
 753.57  26.954  23.674
 754.07  26.954  23.643
 754.57  26.954  23.674
 755.07  26.954  23.674
 755.57  26.954  23.705
 756.07  26.954  23.674
 756.57  26.954  23.643
 757.07  26.846  23.674
 757.57  26.954  23.643
 758.07  27.170  23.674
 758.57  26.954  23.643
 759.07  26.954  23.674
 759.57  26.954  23.643
 760.07  26.954  23.674
 760.57  26.954  23.674
 761.07  27.062  23.674
 761.57  27.062  23.674
 762.07  27.062  23.674
 762.57  27.062  23.705
 763.07  27.062  23.643
 763.57  26.954  23.674
 764.07  27.170  23.674
 764.57  26.954  23.643
 765.07  27.062  23.674
 765.57  27.062  23.674
 766.07  27.062  23.643
 766.57  27.062  23.674
 767.07  26.954  23.643
 767.57  26.846  23.674
 768.07  27.062  23.674
 768.57  27.170  23.705
 769.07  26.954  23.674
 769.57  27.062  23.674
 770.07  26.954  23.674
 770.57  26.954  23.674
 771.07  27.062  23.674
 771.57  26.954  23.674
 772.07  27.062  23.643
 772.57  27.062  23.674
 773.07  26.954  23.705
 773.57  27.062  23.643
 774.07  27.062  23.643
 774.57  26.954  23.674
 775.07  26.954  23.674
 775.57  27.062  23.674
 776.07  27.062  23.643
 776.57  27.062  23.643
 777.07  26.846  23.674
 777.57  27.062  23.643
 778.07  27.062  23.643
 778.57  27.062  23.643
 779.07  26.954  23.674
 779.57  27.062  23.674
 780.07  27.062  23.674
 780.57  27.062  23.643
 781.07  27.062  23.674
 781.57  27.062  23.674
 782.07  27.170  23.674
 782.57  27.062  23.674
 783.07  27.062  23.643
 783.57  27.062  23.674
 784.07  27.062  23.674
 784.57  27.170  23.674
 785.07  26.954  23.674
 785.57  27.062  23.674
 786.07  27.062  23.674
 786.57  27.062  23.643
 787.07  27.170  23.674
 787.57  27.062  23.674
 788.07  27.170  23.643
 788.57  27.170  23.612
 789.07  27.062  23.643
 789.57  27.170  23.674
 790.07  27.279  23.674
 790.57  27.062  23.674
 791.07  27.170  23.674
 791.57  27.062  23.674
 792.07  27.062  23.674
 792.57  27.279  23.705
 793.07  27.062  23.674
 793.57  27.062  23.674
 794.07  27.062  23.674
 794.57  27.062  23.674
 795.07  27.170  23.674
 795.57  27.170  23.674
 796.07  27.279  23.674
 796.57  27.170  23.705
 797.07  27.170  23.705
 797.57  27.170  23.674
 798.07  27.170  23.674
 798.57  27.170  23.643
 799.07  27.170  23.705
 799.57  27.170  23.643
 800.07  27.170  23.643
 800.57  27.062  23.674
 801.07  27.170  23.674
 801.57  27.170  23.674
 802.07  27.170  23.674
 802.57  27.170  23.674
 803.07  27.279  23.674
 803.57  27.062  23.705
 804.07  27.170  23.674
 804.57  27.279  23.643
 805.07  27.062  23.674
 805.57  27.170  23.674
 806.07  27.279  23.705
 806.57  27.279  23.674
 807.07  27.170  23.674
 807.57  27.279  23.674
 808.07  27.279  23.643
 808.57  27.170  23.674
 809.07  27.170  23.643
 809.57  27.279  23.674
 810.07  27.170  23.674
 810.57  27.279  23.643
 811.07  27.279  23.674
 811.57  27.170  23.674
 812.07  27.170  23.705
 812.57  27.170  23.643
 813.07  27.170  23.674
 813.57  27.279  23.705
 814.07  27.279  23.674
 814.57  27.279  23.674
 815.07  27.170  23.674
 815.57  27.279  23.735
 816.07  27.062  23.643
 816.57  27.170  23.674
 817.07  27.170  23.705
 817.57  27.170  23.674
 818.07  27.170  23.643
 818.57  27.279  23.674
 819.07  27.279  23.643
 819.57  27.170  23.674
 820.07  27.279  23.674
 820.57  27.279  23.674
 821.07  27.062  23.674
 821.57  27.170  23.643
 822.07  27.387  23.674
 822.57  27.170  23.674
 823.07  27.170  23.674
 823.57  27.279  23.674
 824.07  27.170  23.705
 824.57  27.279  23.643
 825.07  27.387  23.705
 825.57  27.387  23.705
 826.07  27.279  23.674
 826.57  27.062  23.674
 827.07  27.279  23.674
 827.57  27.170  23.674
 828.07  27.279  23.643
 828.57  27.279  23.643
 829.07  27.279  23.643
 829.57  27.170  23.674
 830.07  27.170  23.674
 830.57  27.170  23.674
 831.07  27.279  23.674
 831.57  27.387  23.705
 832.07  27.279  23.643
 832.57  27.170  23.643
 833.07  27.279  23.674
 833.57  27.279  23.643
 834.07  27.170  23.674
 834.57  27.170  23.674
 835.07  27.170  23.705
 835.57  27.279  23.643
 836.07  27.279  23.674
 836.57  27.279  23.674
 837.07  27.062  23.643
 837.57  27.279  23.674
 838.07  27.279  23.674
 838.57  27.279  23.674
 839.07  27.279  23.674
 839.58  27.279  23.674
 840.08  27.279  23.674
 840.58  27.279  23.674
 841.08  27.279  23.674
 841.58  27.279  23.674
 842.08  27.387  23.674
 842.58  27.279  23.643
 843.08  27.279  23.643
 843.58  27.279  23.674
 844.08  27.170  23.674
 844.58  27.279  23.643
 845.08  27.279  23.643
 845.58  27.279  23.705
 846.08  27.495  23.674
 846.58  27.387  23.674
 847.08  27.279  23.674
 847.58  27.387  23.674
 848.08  27.279  23.674
 848.58  27.279  23.643
 849.08  27.279  23.705
 849.58  27.387  23.674
 850.08  27.279  23.674
 850.58  27.279  23.674
 851.08  27.279  23.674
 851.58  27.279  23.674
 852.08  27.279  23.674
 852.58  27.279  23.674
 853.08  27.279  23.674
 853.58  27.279  23.674
 854.08  27.387  23.674
 854.58  27.279  23.674
 855.08  27.495  23.674
 855.58  27.279  23.612
 856.08  27.279  23.674
 856.58  27.279  23.674
 857.08  27.387  23.643
 857.58  27.279  23.674
 858.08  27.387  23.643
 858.58  27.387  23.674
 859.08  27.170  23.643
 859.58  27.279  23.674
 860.08  27.279  23.643
 860.58  27.387  23.705
 861.08  27.387  23.643
 861.58  27.279  23.674
 862.08  27.279  23.705
 862.58  27.387  23.674
 863.08  27.279  23.674
 863.58  27.170  23.674
 864.08  27.279  23.674
 864.58  27.279  23.674
 865.08  27.387  23.643
 865.58  27.279  23.643
 866.08  27.387  23.674
 866.58  27.387  23.674
 867.08  27.387  23.643
 867.58  27.495  23.674
 868.08  27.387  23.705
 868.58  27.387  23.643
 869.08  27.387  23.674
 869.58  27.170  23.674
 870.08  27.387  23.674
 870.58  27.279  23.674
 871.08  27.387  23.643
 871.58  27.387  23.643
 872.08  27.279  23.674
 872.58  27.387  23.674
 873.08  27.387  23.674
 873.58  27.495  23.643
 874.08  27.279  23.674
 874.58  27.495  23.674
 875.08  27.387  23.674
 875.58  27.387  23.674
 876.08  27.387  23.674
 876.58  27.387  23.674
 877.08  27.495  23.674
 877.58  27.170  23.674
 878.08  27.387  23.674
 878.58  27.495  23.705
 879.08  27.387  23.674
 879.58  27.387  23.674
 880.08  27.387  23.705
 880.58  27.495  23.705
 881.08  27.387  23.612
 881.58  27.387  23.705
 882.08  27.387  23.674
 882.58  27.387  23.643
 883.08  27.495  23.643
 883.58  27.387  23.674
 884.08  27.495  23.674
 884.58  27.603  23.674
 885.08  27.387  23.643
 885.58  27.387  23.705
 886.08  27.387  23.643
 886.58  27.387  23.643
 887.08  27.495  23.674
 887.58  27.495  23.674
 888.08  27.495  23.705
 888.58  27.495  23.674
 889.08  27.495  23.674
 889.58  27.495  23.674
 890.08  27.495  23.674
 890.58  27.603  23.674
 891.08  27.495  23.674
 891.58  27.495  23.705
 892.08  27.495  23.674
 892.58  27.495  23.674
 893.08  27.495  23.705
 893.58  27.603  23.705
 894.08  27.495  23.674
 894.58  27.495  23.674
 895.08  27.495  23.643
 895.58  27.495  23.705
 896.08  27.495  23.705
 896.58  27.387  23.674
 897.08  27.495  23.674
 897.58  27.495  23.643
 898.08  27.712  23.674
 898.58  27.495  23.674
 899.08  27.495  23.674
 899.58  27.495  23.674
 900.08  27.495  23.705
 900.58  27.495  23.643
 901.08  27.495  23.674
 901.58  27.387  23.674
 902.08  27.495  23.674
 902.58  27.603  23.674
 903.08  27.495  23.705
 903.58  27.387  23.674
 904.08  27.495  23.674
 904.58  27.279  23.674
 905.08  27.495  23.705
 905.58  27.495  23.705
 906.08  27.495  23.674
 906.58  27.495  23.674
 907.08  27.603  23.674
 907.58  27.279  23.705
 908.08  27.712  23.705
 908.58  27.603  23.705
 909.08  27.495  23.674
 909.58  27.603  23.705
 910.08  27.495  23.735
 910.58  27.603  23.705
 911.08  27.495  23.674
 911.58  27.495  23.705
 912.08  27.603  23.705
 912.58  27.495  23.674
 913.08  27.603  23.674
 913.58  27.495  23.705
 914.08  27.603  23.705
 914.58  27.603  23.705
 915.08  27.603  23.674
 915.58  27.603  23.674
 916.08  27.495  23.705
 916.58  27.603  23.674
 917.08  27.495  23.674
 917.58  27.495  23.674
 918.08  27.495  23.705
 918.58  27.495  23.643
 919.08  27.603  23.674
 919.58  27.603  23.674
 920.08  27.603  23.705
 920.58  27.495  23.643
 921.08  27.495  23.674
 921.58  27.603  23.705
 922.08  27.495  23.705
 922.58  27.495  23.674
 923.08  27.603  23.674
 923.58  27.603  23.674
 924.08  27.495  23.674
 924.58  27.603  23.674
 925.08  27.603  23.705
 925.58  27.603  23.674
 926.08  27.603  23.674
 926.58  27.603  23.705
 927.08  27.603  23.674
 927.58  27.603  23.705
 928.08  27.495  23.674
 928.58  27.603  23.674
 929.08  27.603  23.705
 929.58  27.603  23.674
 930.08  27.603  23.705
 930.58  27.495  23.643
 931.08  27.603  23.674
 931.58  27.603  23.674
 932.08  27.495  23.674
 932.58  27.712  23.674
 933.08  27.712  23.674
 933.58  27.712  23.643
 934.08  27.603  23.674
 934.58  27.603  23.705
 935.08  27.603  23.705
 935.58  27.603  23.674
 936.08  27.495  23.674
 936.58  27.712  23.674
 937.08  27.820  23.705
 937.58  27.712  23.674
 938.08  27.603  23.674
 938.58  27.603  23.674
 939.08  27.495  23.674
 939.58  27.603  23.674
 940.08  27.603  23.674
 940.58  27.712  23.674
 941.08  27.603  23.674
 941.58  27.603  23.674
 942.08  27.603  23.705
 942.58  27.603  23.674
 943.08  27.603  23.674
 943.58  27.712  23.705
 944.08  27.603  23.705
 944.58  27.603  23.674
 945.08  27.603  23.705
 945.58  27.603  23.643
 946.08  27.603  23.705
 946.58  27.603  23.643
 947.08  27.603  23.674
 947.58  27.603  23.643
 948.08  27.712  23.735
 948.58  27.712  23.674
 949.08  27.712  23.705
 949.58  27.712  23.674
 950.08  27.603  23.674
 950.58  27.712  23.674
 951.08  27.603  23.674
 951.58  27.712  23.705
 952.08  27.712  23.674
 952.58  27.712  23.705
 953.09  27.712  23.674
 953.59  27.495  23.674
 954.09  27.712  23.674
 954.59  27.712  23.643
 955.09  27.712  23.705
 955.59  27.712  23.643
 956.09  27.820  23.674
 956.59  27.603  23.705
 957.09  27.603  23.705
 957.59  27.712  23.705
 958.09  27.712  23.674
 958.59  27.495  23.674
 959.09  27.603  23.674
 959.59  27.712  23.705
 960.09  27.820  23.674
 960.59  27.712  23.674
 961.09  27.603  23.643
 961.59  27.820  23.674
 962.09  27.603  23.705
 962.59  27.603  23.674
 963.09  27.712  23.705
 963.59  27.603  23.705
 964.09  27.712  23.674
 964.59  27.712  23.674
 965.09  27.603  23.705
 965.59  27.712  23.674
 966.09  27.712  23.705
 966.59  27.603  23.674
 967.09  27.603  23.705
 967.59  27.603  23.674
 968.09  27.712  23.674
 968.59  27.712  23.705
 969.09  27.712  23.674
 969.59  27.712  23.674
 970.09  27.820  23.674
 970.59  27.495  23.705
 971.09  27.712  23.643
 971.59  27.712  23.643
 972.09  27.712  23.705
 972.59  27.495  23.674
 973.09  27.712  23.705
 973.59  27.712  23.674
 974.09  27.712  23.674
 974.59  27.712  23.705
 975.09  27.820  23.674
 975.59  27.712  23.674
 976.09  27.712  23.674
 976.59  27.820  23.674
 977.09  27.712  23.674
 977.59  27.603  23.674
 978.09  27.495  23.674
 978.59  27.820  23.674
 979.09  27.712  23.705
 979.59  27.820  23.674
 980.09  27.603  23.674
 980.59  27.712  23.674
 981.09  27.928  23.674
 981.59  27.712  23.705
 982.09  27.820  23.674
 982.59  27.712  23.674
 983.09  27.820  23.705
 983.59  27.820  23.674
 984.09  27.820  23.705
 984.59  27.712  23.674
 985.09  27.712  23.674
 985.59  27.712  23.674
 986.09  27.712  23.674
 986.59  27.712  23.674
 987.09  27.712  23.643
 987.59  27.712  23.674
 988.09  27.712  23.674
 988.59  27.712  23.674
 989.09  27.712  23.674
 989.59  27.712  23.643
 990.09  27.712  23.705
 990.59  27.820  23.674
 991.09  27.712  23.674
 991.59  27.712  23.674
 992.09  27.820  23.674
 992.59  27.820  23.643
 993.09  27.820  23.674
 993.59  27.712  23.674
 994.09  27.712  23.705
 994.59  27.712  23.674
 995.09  27.820  23.705
 995.59  27.712  23.643
 996.09  27.820  23.674
 996.59  27.820  23.674
 997.09  27.820  23.674
 997.59  27.820  23.674
 998.09  27.712  23.674
 998.59  27.820  23.674
 999.09  27.712  23.674
 999.59  27.820  23.674
1000.09  27.712  23.705
1000.59  27.712  23.674
1001.09  27.712  23.674
1001.59  27.820  23.705
1002.09  27.820  23.735
1002.59  27.928  23.674
1003.09  27.712  23.643
1003.59  27.820  23.674
1004.09  27.820  23.705
1004.59  27.820  23.705
1005.09  27.820  23.643
1005.59  27.820  23.674
1006.09  27.820  23.674
1006.59  27.820  23.674
1007.09  27.820  23.674
1007.59  27.928  23.705
1008.09  27.820  23.705
1008.59  27.820  23.705
1009.09  27.820  23.674
1009.59  27.820  23.705
1010.09  27.603  23.674
1010.59  27.820  23.674
1011.09  27.820  23.705
1011.59  27.928  23.705
1012.09  27.820  23.705
1012.59  27.820  23.674
1013.09  27.820  23.705
1013.59  27.820  23.674
1014.09  27.820  23.643
1014.59  27.820  23.674
1015.09  27.820  23.705
1015.59  27.820  23.674
1016.09  27.820  23.705
1016.59  27.820  23.674
1017.09  27.820  23.735
1017.59  27.820  23.674
1018.09  27.820  23.674
1018.59  27.820  23.705
1019.09  27.928  23.705
1019.59  27.820  23.674
1020.09  27.820  23.674
1020.59  27.928  23.705
1021.09  27.820  23.674
1021.59  27.820  23.674
1022.09  27.820  23.705
1022.59  27.820  23.674
1023.09  27.928  23.643
1023.59  27.820  23.643
1024.09  27.820  23.674
1024.59  27.820  23.674
1025.09  27.820  23.705
1025.59  27.928  23.705
1026.09  27.928  23.643
1026.59  27.712  23.674
1027.09  27.820  23.674
1027.59  27.820  23.705
1028.09  27.928  23.705
1028.59  27.928  23.674
1029.09  27.928  23.674
1029.59  27.928  23.674
1030.09  27.820  23.674
1030.59  27.928  23.705
1031.09  27.820  23.643
1031.59  27.928  23.674
1032.09  27.928  23.705
1032.59  27.928  23.643
1033.09  27.820  23.705
1033.59  27.928  23.674
1034.09  27.928  23.705
1034.59  27.928  23.674
1035.09  27.928  23.643
1035.59  27.928  23.705
1036.09  28.036  23.705
1036.59  27.928  23.705
1037.09  27.712  23.705
1037.59  27.928  23.705
1038.09  27.928  23.705
1038.59  27.928  23.705
1039.09  27.928  23.705
1039.59  27.928  23.705
1040.09  28.036  23.674
1040.59  27.928  23.705
1041.09  27.928  23.735
1041.59  28.036  23.674
1042.09  27.928  23.674
1042.59  27.928  23.674
1043.09  27.928  23.735
1043.59  27.928  23.674
1044.09  28.036  23.674
1044.59  27.820  23.674
1045.09  28.036  23.705
1045.59  28.036  23.705
1046.09  27.820  23.674
1046.59  27.928  23.674
1047.09  27.928  23.705
1047.59  27.928  23.674
1048.09  27.820  23.705
1048.59  27.928  23.705
1049.09  28.036  23.674
1049.59  27.928  23.674
1050.09  28.036  23.705
1050.59  27.928  23.705
1051.09  27.928  23.705
1051.59  27.820  23.643
1052.09  27.820  23.643
1052.59  27.928  23.705
1053.09  27.820  23.674
1053.59  28.036  23.674
1054.09  27.820  23.705
1054.59  27.928  23.705
1055.09  27.928  23.674
1055.59  28.036  23.674
1056.09  27.928  23.674
1056.59  27.928  23.674
1057.09  27.928  23.674
1057.59  27.928  23.643
1058.09  27.928  23.705
1058.59  27.928  23.674
1059.09  27.928  23.705
1059.59  27.928  23.674
1060.09  27.928  23.735
1060.59  27.928  23.705
1061.09  28.036  23.674
1061.59  27.928  23.674
1062.09  27.928  23.705
1062.59  27.928  23.705
1063.09  28.036  23.674
1063.59  28.036  23.674
1064.09  28.036  23.705
1064.59  28.036  23.674
1065.09  28.036  23.705
1065.59  28.036  23.674
1066.10  28.036  23.705
1066.60  28.036  23.705
1067.10  28.036  23.705
1067.60  28.036  23.705
1068.10  27.928  23.705
1068.60  28.036  23.705
1069.10  28.036  23.705
1069.60  28.036  23.674
1070.10  27.928  23.674
1070.60  27.928  23.705
1071.10  28.036  23.705
1071.60  28.036  23.643
1072.10  27.928  23.674
1072.60  28.036  23.643
1073.10  28.036  23.705
1073.60  28.036  23.705
1074.10  28.036  23.674
1074.60  28.036  23.674
1075.10  28.036  23.705
1075.60  28.145  23.674
1076.10  28.036  23.674
1076.60  28.145  23.674
1077.10  28.036  23.705
1077.60  27.928  23.674
1078.10  28.036  23.705
1078.60  28.036  23.674
1079.10  28.036  23.705
1079.60  28.036  23.705
1080.10  27.928  23.674
1080.60  28.145  23.674
1081.10  28.036  23.735
1081.60  28.036  23.705
1082.10  28.036  23.674
1082.60  28.036  23.705
1083.10  28.036  23.735
1083.60  28.145  23.705
1084.10  28.036  23.735
1084.60  28.036  23.705
1085.10  28.036  23.674
1085.60  28.036  23.735
1086.10  28.036  23.705
1086.60  28.036  23.705
1087.10  28.036  23.705
1087.60  28.036  23.705
1088.10  28.036  23.705
1088.60  28.036  23.705
1089.10  28.145  23.705
1089.60  28.036  23.705
1090.10  28.036  23.674
1090.60  28.145  23.674
1091.10  28.036  23.705
1091.60  28.036  23.674
1092.10  28.036  23.735
1092.60  28.145  23.674
1093.10  28.036  23.705
1093.60  28.036  23.705
1094.10  28.036  23.705
1094.60  28.145  23.705
1095.10  28.036  23.674
1095.60  28.036  23.735
1096.10  28.036  23.705
1096.60  28.036  23.766
1097.10  28.036  23.705
1097.60  28.036  23.705
1098.10  28.036  23.735
1098.60  28.145  23.674
1099.10  28.036  23.705
1099.60  28.036  23.674
1100.10  28.145  23.705
1100.60  28.036  23.705
1101.10  28.036  23.735
1101.60  28.036  23.674
1102.10  28.036  23.705
1102.60  28.036  23.705
1103.10  28.145  23.705
1103.60  28.036  23.705
1104.10  28.036  23.705
1104.60  28.145  23.643
1105.10  28.036  23.705
1105.60  28.145  23.705
1106.10  28.036  23.705
1106.60  28.145  23.674
1107.10  28.036  23.705
1107.60  28.036  23.674
1108.10  28.036  23.674
1108.60  28.145  23.705
1109.10  28.036  23.674
1109.60  28.036  23.674
1110.10  28.036  23.705
1110.60  28.036  23.705
1111.10  28.036  23.705
1111.60  28.036  23.674
1112.10  28.145  23.705
1112.60  28.036  23.705
1113.10  27.928  23.674
1113.60  28.145  23.674
1114.10  28.036  23.643
1114.60  28.145  23.643
1115.10  28.145  23.705
1115.60  28.036  23.674
1116.10  28.036  23.674
1116.60  28.145  23.674
1117.10  28.036  23.674
1117.60  28.036  23.705
1118.10  28.036  23.674
1118.60  28.145  23.674
1119.10  28.036  23.674
1119.60  28.145  23.705
1120.10  28.036  23.705
1120.60  28.145  23.705
1121.10  28.145  23.705
1121.60  28.145  23.674
1122.10  28.145  23.674
1122.60  28.145  23.705
1123.10  28.145  23.643
1123.60  28.036  23.705
1124.10  28.145  23.705
1124.60  28.253  23.735
1125.10  28.036  23.674
1125.60  28.145  23.705
1126.10  28.145  23.674
1126.60  28.145  23.705
1127.10  28.145  23.735
1127.60  28.145  23.674
1128.10  28.253  23.705
1128.60  28.145  23.705
1129.10  28.036  23.674
1129.60  28.145  23.674
1130.10  28.145  23.705
1130.60  28.036  23.705
1131.10  28.145  23.735
1131.60  28.145  23.735
1132.10  28.036  23.705
1132.60  28.253  23.674
1133.10  28.145  23.735
1133.60  28.253  23.705
1134.10  28.145  23.674
1134.60  28.253  23.705
1135.10  28.145  23.705
1135.60  28.145  23.705
1136.10  28.253  23.674
1136.60  28.253  23.735
1137.10  28.145  23.674
1137.60  28.361  23.674
1138.10  28.145  23.705
1138.60  28.145  23.705
1139.10  28.253  23.705
1139.60  28.145  23.705
1140.10  28.145  23.705
1140.60  28.145  23.612
1141.10  28.361  23.705
1141.60  28.145  23.705
1142.10  28.145  23.735
1142.60  28.145  23.705
1143.10  28.036  23.674
1143.60  28.145  23.705
1144.10  28.145  23.705
1144.60  28.145  23.705
1145.10  28.253  23.705
1145.60  28.145  23.674
1146.10  28.145  23.705
1146.60  28.145  23.735
1147.10  28.145  23.705
1147.60  28.253  23.735
1148.10  28.361  23.705
1148.60  28.145  23.705
1149.10  28.145  23.705
1149.60  28.145  23.705
1150.10  27.928  23.735
1150.60  28.253  23.705
1151.10  28.253  23.705
1151.60  28.253  23.705
1152.10  28.253  23.705
1152.60  28.253  23.735
1153.10  28.253  23.705
1153.60  28.253  23.705
1154.10  28.253  23.705
1154.60  28.253  23.705
1155.10  28.145  23.705
1155.60  28.253  23.705
1156.10  28.145  23.705
1156.60  28.361  23.735
1157.10  28.145  23.766
1157.60  28.253  23.705
1158.10  28.253  23.705
1158.60  28.253  23.705
1159.10  28.253  23.705
1159.60  28.253  23.705
1160.10  28.253  23.705
1160.60  28.253  23.705
1161.10  28.253  23.705
1161.60  28.253  23.705
1162.10  28.036  23.705
1162.60  28.145  23.674
1163.10  28.253  23.705
1163.60  28.253  23.674
1164.10  28.361  23.705
1164.60  28.253  23.735
1165.10  28.253  23.705
1165.60  28.361  23.705
1166.10  28.253  23.705
1166.60  28.253  23.705
1167.10  28.253  23.705
1167.60  28.253  23.705
1168.10  28.253  23.705
1168.60  28.145  23.705
1169.10  28.253  23.705
1169.60  28.253  23.674
1170.10  28.253  23.674
1170.60  28.145  23.674
1171.10  28.145  23.705
1171.60  28.253  23.674
1172.10  28.253  23.674
1172.60  28.253  23.705
1173.10  28.253  23.674
1173.60  28.361  23.705
1174.10  28.253  23.705
1174.60  28.361  23.735
1175.10  28.361  23.705
1175.60  28.253  23.643
1176.10  28.253  23.705
1176.60  28.253  23.705
1177.10  28.361  23.735
1177.60  28.253  23.705
1178.10  28.253  23.705
1178.60  28.145  23.705
1179.11  28.253  23.705
1179.61  28.253  23.674
1180.11  28.469  23.705
1180.61  28.253  23.735
1181.11  28.253  23.735
1181.61  28.253  23.705
1182.11  28.361  23.705
1182.61  28.253  23.705
1183.11  28.469  23.705
1183.61  28.145  23.705
1184.11  28.361  23.705
1184.61  28.145  23.705
1185.11  28.145  23.674
1185.61  28.253  23.674
1186.11  28.253  23.705
1186.61  28.361  23.705
1187.11  28.145  23.705
1187.61  28.253  23.674
1188.11  28.145  23.766
1188.61  28.253  23.705
1189.11  28.253  23.705
1189.61  28.145  23.705
1190.11  28.253  23.674
1190.61  28.253  23.705
1191.11  28.253  23.705
1191.61  28.253  23.705
1192.11  28.253  23.674
1192.61  28.253  23.705
1193.11  28.253  23.674
1193.61  28.469  23.674
1194.11  28.253  23.674
1194.61  28.361  23.705
1195.11  28.361  23.705
1195.61  28.253  23.735
1196.11  28.253  23.674
1196.61  28.253  23.705
1197.11  28.361  23.674
1197.61  28.361  23.705
1198.11  28.253  23.735
1198.61  28.361  23.705
1199.11  28.361  23.766
1199.61  28.361  23.705
1200.11  28.361  23.705
1200.61  28.253  23.735
1201.11  28.253  23.705
1201.61  28.253  23.705
1202.11  28.361  23.705
1202.61  28.361  23.735
1203.11  28.361  23.705
1203.61  28.361  23.735
1204.11  28.253  23.735
1204.61  28.253  23.705
1205.11  28.469  23.705
1205.61  28.253  23.705
1206.11  28.361  23.735
1206.61  28.253  23.705
1207.11  28.361  23.674
1207.61  28.361  23.735
1208.11  28.361  23.735
1208.61  28.361  23.705
1209.11  28.361  23.705
1209.61  28.361  23.705
1210.11  28.361  23.705
1210.61  28.361  23.705
1211.11  28.361  23.705
1211.61  28.469  23.705
1212.11  28.361  23.705
1212.61  28.361  23.705
1213.11  28.361  23.674
1213.61  28.361  23.705
1214.11  28.361  23.766
1214.61  28.361  23.674
1215.11  28.361  23.705
1215.61  28.361  23.674
1216.11  28.361  23.705
1216.61  28.361  23.735
1217.11  28.361  23.705
1217.61  28.253  23.735
1218.11  28.361  23.705
1218.61  28.469  23.735
1219.11  28.361  23.735
1219.61  28.361  23.705
1220.11  28.361  23.766
1220.61  28.361  23.705
1221.11  28.253  23.705
1221.61  28.361  23.705
1222.11  28.253  23.705
1222.61  28.253  23.705
1223.11  28.361  23.705
1223.61  28.361  23.705
1224.11  28.361  23.735
1224.61  28.469  23.735
1225.11  28.361  23.705
1225.61  28.361  23.674
1226.11  28.361  23.705
1226.61  28.361  23.705
1227.11  28.361  23.705
1227.61  28.361  23.735
1228.11  28.361  23.705
1228.61  28.361  23.705
1229.11  28.361  23.705
1229.61  28.361  23.705
1230.11  28.361  23.735
1230.61  28.361  23.735
1231.11  28.361  23.705
1231.61  28.469  23.674
1232.11  28.253  23.705
1232.61  28.469  23.705
1233.11  28.361  23.705
1233.61  28.361  23.705
1234.11  28.469  23.705
1234.61  28.361  23.705
1235.11  28.253  23.674
1235.61  28.361  23.705
1236.11  28.361  23.705
1236.61  28.253  23.705
1237.11  28.361  23.705
1237.61  28.361  23.674
1238.11  28.469  23.735
1238.61  28.361  23.735
1239.11  28.361  23.674
1239.61  28.361  23.705
1240.11  28.361  23.735
1240.61  28.361  23.735
1241.11  28.361  23.705
1241.61  28.469  23.735
1242.11  28.361  23.674
1242.61  28.469  23.735
1243.11  28.578  23.705
1243.61  28.578  23.705
1244.11  28.361  23.705
1244.61  28.361  23.735
1245.11  28.361  23.705
1245.61  28.469  23.705
1246.11  28.469  23.705
1246.61  28.361  23.735
1247.11  28.361  23.705
1247.61  28.361  23.705
1248.11  28.361  23.705
1248.61  28.361  23.705
1249.11  28.361  23.674
1249.61  28.469  23.674
1250.11  28.361  23.705
1250.61  28.361  23.705
1251.11  28.578  23.735
1251.61  28.361  23.705
1252.11  28.578  23.705
1252.61  28.578  23.705
1253.11  28.469  23.705
1253.61  28.361  23.735
1254.11  28.361  23.705
1254.61  28.469  23.797
1255.11  28.469  23.705
1255.61  28.361  23.705
1256.11  28.469  23.705
1256.61  28.361  23.735
1257.11  28.469  23.735
1257.61  28.578  23.705
1258.11  28.361  23.705
1258.61  28.469  23.705
1259.11  28.469  23.705
1259.61  28.469  23.705
1260.11  28.361  23.735
1260.61  28.469  23.705
1261.11  28.578  23.735
1261.61  28.469  23.705
1262.11  28.361  23.766
1262.61  28.469  23.735
1263.11  28.578  23.735
1263.61  28.361  23.735
1264.11  28.361  23.735
1264.61  28.469  23.705
1265.11  28.469  23.735
1265.61  28.578  23.766
1266.11  28.469  23.705
1266.61  28.469  23.735
1267.11  28.469  23.705
1267.61  28.361  23.705
1268.11  28.578  23.735
1268.61  28.469  23.705
1269.11  28.469  23.705
1269.61  28.469  23.705
1270.11  28.469  23.705
1270.61  28.469  23.705
1271.11  28.469  23.705
1271.61  28.469  23.735
1272.11  28.469  23.705
1272.61  28.361  23.735
1273.11  28.361  23.735
1273.61  28.469  23.705
1274.11  28.361  23.705
1274.61  28.469  23.674
1275.11  28.469  23.735
1275.61  28.686  23.705
1276.11  28.578  23.735
1276.61  28.361  23.705
1277.11  28.469  23.705
1277.61  28.578  23.705
1278.11  28.469  23.705
1278.61  28.469  23.735
1279.11  28.469  23.705
1279.61  28.361  23.705
1280.11  28.469  23.705
1280.61  28.253  23.674
1281.11  28.578  23.705
1281.61  28.469  23.705
1282.11  28.469  23.705
1282.61  28.469  23.705
1283.11  28.578  23.705
1283.61  28.469  23.735
1284.11  28.361  23.735
1284.61  28.578  23.735
1285.11  28.361  23.674
1285.61  28.469  23.674
1286.11  28.578  23.705
1286.61  28.469  23.705
1287.11  28.469  23.735
1287.61  28.469  23.674
1288.11  28.469  23.705
1288.61  28.578  23.735
1289.11  28.469  23.735
1289.61  28.469  23.705
1290.11  28.469  23.705
1290.61  28.469  23.705
1291.11  28.469  23.705
1291.61  28.469  23.705
1292.11  28.361  23.705
1292.62  28.469  23.705
1293.12  28.469  23.735
1293.62  28.578  23.735
1294.12  28.469  23.705
1294.62  28.578  23.735
1295.12  28.469  23.705
1295.62  28.469  23.735
1296.12  28.469  23.705
1296.62  28.578  23.735
1297.12  28.469  23.735
1297.62  28.361  23.735
1298.12  28.469  23.705
1298.62  28.469  23.705
1299.12  28.469  23.674
1299.62  28.578  23.705
1300.12  28.469  23.705
1300.62  28.469  23.735
1301.12  28.686  23.705
1301.62  28.578  23.705
1302.12  28.578  23.705
1302.62  28.578  23.705
1303.12  28.469  23.705
1303.62  28.469  23.705
1304.12  28.469  23.705
1304.62  28.578  23.705
1305.12  28.578  23.766
1305.62  28.578  23.705
1306.12  28.578  23.705
1306.62  28.469  23.674
1307.12  28.469  23.735
1307.62  28.469  23.705
1308.12  28.578  23.705
1308.62  28.578  23.735
1309.12  28.578  23.735
1309.62  28.686  23.705
1310.12  28.469  23.735
1310.62  28.686  23.735
1311.12  28.578  23.705
1311.62  28.469  23.705
1312.12  28.686  23.705
1312.62  28.469  23.766
1313.12  28.469  23.705
1313.62  28.469  23.735
1314.12  28.469  23.735
1314.62  28.578  23.705
1315.12  28.469  23.735
1315.62  28.578  23.643
1316.12  28.578  23.705
1316.62  28.578  23.735
1317.12  28.686  23.705
1317.62  28.578  23.735
1318.12  28.578  23.735
1318.62  28.578  23.705
1319.12  28.578  23.705
1319.62  28.469  23.735
1320.12  28.686  23.735
1320.62  28.578  23.735
1321.12  28.578  23.705
1321.62  28.686  23.705
1322.12  28.578  23.705
1322.62  28.578  23.705
1323.12  28.578  23.735
1323.62  28.686  23.705
1324.12  28.578  23.735
1324.62  28.578  23.735
1325.12  28.469  23.735
1325.62  28.578  23.705
1326.12  28.578  23.735
1326.62  28.578  23.735
1327.12  28.578  23.735
1327.62  28.578  23.735
1328.12  28.361  23.705
1328.62  28.361  23.735
1329.12  28.578  23.735
1329.62  28.578  23.735
1330.12  28.578  23.735
1330.62  28.578  23.735
1331.12  28.578  23.705
1331.62  28.469  23.705
1332.12  28.578  23.705
1332.62  28.578  23.705
1333.12  28.578  23.766
1333.62  28.578  23.705
1334.12  28.578  23.705
1334.62  28.469  23.705
1335.12  28.578  23.705
1335.62  28.578  23.735
1336.12  28.686  23.705
1336.62  28.469  23.735
1337.12  28.578  23.735
1337.62  28.469  23.735
1338.12  28.578  23.705
1338.62  28.578  23.705
1339.12  28.469  23.705
1339.62  28.469  23.705
1340.12  28.578  23.766
1340.62  28.686  23.735
1341.12  28.686  23.735
1341.62  28.578  23.766
1342.12  28.578  23.735
1342.62  28.578  23.705
1343.12  28.469  23.705
1343.62  28.469  23.735
1344.12  28.578  23.735
1344.62  28.686  23.735
1345.12  28.578  23.735
1345.62  28.686  23.735
1346.12  28.578  23.766
1346.62  28.686  23.705
1347.12  28.578  23.735
1347.62  28.578  23.705
1348.12  28.686  23.735
1348.62  28.578  23.735
1349.12  28.686  23.705
1349.62  28.686  23.735
1350.12  28.578  23.674
1350.62  28.578  23.735
1351.12  28.578  23.735
1351.62  28.686  23.735
1352.12  28.578  23.735
1352.62  28.686  23.735
1353.12  28.578  23.735
1353.62  28.578  23.766
1354.12  28.686  23.735
1354.62  28.902  23.735
1355.12  28.686  23.735
1355.62  28.794  23.705
1356.12  28.578  23.705
1356.62  28.794  23.735
1357.12  28.794  23.735
1357.62  28.578  23.735
1358.12  28.686  23.735
1358.62  28.686  23.735
1359.12  28.686  23.766
1359.62  28.686  23.766
1360.12  28.578  23.735
1360.62  28.469  23.705
1361.12  28.469  23.735
1361.62  28.469  23.705
1362.12  28.578  23.735
1362.62  28.578  23.735
1363.12  28.578  23.735
1363.62  28.686  23.705
1364.12  28.686  23.705
1364.62  28.686  23.705
1365.12  28.578  23.705
1365.62  28.578  23.674
1366.12  28.686  23.705
1366.62  28.686  23.705
1367.12  28.686  23.735
1367.62  28.794  23.766
1368.12  28.578  23.735
1368.62  28.578  23.735
1369.12  28.578  23.705
1369.62  28.686  23.735
1370.12  28.578  23.705
1370.62  28.686  23.735
1371.12  28.578  23.705
1371.62  28.686  23.705
1372.12  28.686  23.705
1372.62  28.578  23.735
1373.12  28.578  23.735
1373.62  28.686  23.735
1374.12  28.686  23.735
1374.62  28.578  23.735
1375.12  28.578  23.735
1375.62  28.686  23.705
1376.12  28.794  23.735
1376.62  28.794  23.705
1377.12  28.686  23.705
1377.62  28.578  23.735
1378.12  28.578  23.705
1378.62  28.578  23.705
1379.12  28.469  23.735
1379.62  28.794  23.705
1380.12  28.578  23.705
1380.62  28.686  23.705
1381.12  28.578  23.705
1381.62  28.794  23.735
1382.12  28.578  23.705
1382.62  28.686  23.705
1383.12  28.686  23.735
1383.62  28.578  23.705
1384.12  28.686  23.735
1384.62  28.686  23.735
1385.12  28.686  23.674
1385.62  28.578  23.735
1386.12  28.686  23.674
1386.62  28.686  23.705
1387.12  28.794  23.674
1387.62  28.578  23.735
1388.12  28.686  23.735
1388.62  28.686  23.735
1389.12  28.686  23.735
1389.62  28.686  23.735
1390.12  28.686  23.705
1390.62  28.794  23.705
1391.12  28.686  23.705
1391.62  28.794  23.735
1392.12  28.794  23.735
1392.62  28.794  23.735
1393.12  28.686  23.735
1393.62  28.578  23.735
1394.12  28.794  23.705
1394.62  28.686  23.735
1395.12  28.794  23.705
1395.62  28.686  23.735
1396.12  28.794  23.735
1396.62  28.686  23.766
1397.12  28.578  23.735
1397.62  28.794  23.735
1398.12  28.686  23.766
1398.62  28.794  23.735
1399.12  28.902  23.735
1399.62  28.794  23.735
1400.12  28.794  23.735
1400.62  28.578  23.766
1401.12  28.578  23.705
1401.62  28.794  23.735
1402.12  28.686  23.735
1402.62  28.794  23.735
1403.12  28.686  23.705
1403.62  28.686  23.705
1404.12  28.686  23.705
1404.62  28.794  23.735
1405.12  28.794  23.705
1405.62  28.794  23.735
1406.12  28.686  23.735
1406.62  28.686  23.705
1407.12  28.686  23.735
1407.62  28.686  23.735
1408.12  28.578  23.735
1408.62  28.686  23.705
1409.12  28.686  23.735
1409.62  28.794  23.705
1410.12  28.794  23.735
1410.62  28.794  23.705
1411.12  28.794  23.705
1411.62  28.686  23.735
1412.12  28.794  23.735
1412.62  28.686  23.735
1413.12  28.794  23.735
1413.62  28.686  23.735
1414.12  28.794  23.735
1414.62  28.794  23.735
1415.12  28.794  23.735
1415.62  28.794  23.735
1416.12  28.794  23.705
1416.63  28.794  23.735
1417.13  28.794  23.705
1417.63  28.902  23.735
1418.13  28.686  23.735
1418.63  28.794  23.735
1419.13  28.794  23.797
1419.63  28.686  23.705
1420.13  28.686  23.735
1420.63  28.686  23.705
1421.13  28.794  23.705
1421.63  28.794  23.705
1422.13  28.686  23.735
1422.63  28.578  23.735
1423.13  28.794  23.735
1423.63  28.794  23.674
1424.13  29.011  23.735
1424.63  28.902  23.766
1425.13  28.686  23.735
1425.63  28.794  23.705
1426.13  28.794  23.705
1426.63  28.902  23.735
1427.13  28.794  23.735
1427.63  28.902  23.735
1428.13  28.794  23.705
1428.63  28.686  23.766
1429.13  28.794  23.735
1429.63  28.794  23.705
1430.13  28.902  23.735
1430.63  28.794  23.705
1431.13  28.794  23.735
1431.63  28.794  23.735
1432.13  28.794  23.735
1432.63  28.686  23.735
1433.13  28.686  23.735
1433.63  28.794  23.766
1434.13  28.794  23.735
1434.63  28.902  23.735
1435.13  28.794  23.766
1435.63  28.794  23.735
1436.13  28.794  23.705
1436.63  28.902  23.705
1437.13  28.794  23.735
1437.63  28.686  23.735
1438.13  28.794  23.735
1438.63  28.686  23.766
1439.13  28.794  23.766
1439.63  28.902  23.735
1440.13  28.902  23.735
1440.63  28.794  23.735
1441.13  28.794  23.735
1441.63  28.902  23.766
1442.13  28.794  23.735
1442.63  28.794  23.705
1443.13  28.578  23.735
1443.63  28.902  23.735
1444.13  28.794  23.705
1444.63  28.902  23.735
1445.13  28.902  23.735
1445.63  28.686  23.735
1446.13  28.794  23.735
1446.63  28.794  23.735
1447.13  29.011  23.735
1447.63  28.794  23.735
1448.13  28.902  23.735
1448.63  28.794  23.735
1449.13  28.794  23.735
1449.63  28.902  23.735
1450.13  28.794  23.705
1450.63  28.794  23.766
1451.13  28.902  23.735
1451.63  28.794  23.705
1452.13  28.794  23.735
1452.63  28.686  23.735
1453.13  28.794  23.735
1453.63  28.794  23.766
1454.13  28.794  23.766
1454.63  28.794  23.735
1455.13  28.902  23.735
1455.63  28.794  23.735
1456.13  28.794  23.735
1456.63  28.902  23.735
1457.13  29.011  23.735
1457.63  28.902  23.766
1458.13  28.902  23.735
1458.63  28.902  23.735
1459.13  28.902  23.735
1459.63  28.902  23.735
1460.13  28.902  23.735
1460.63  28.794  23.797
1461.13  28.794  23.766
1461.63  28.686  23.735
1462.13  28.686  23.705
1462.63  28.902  23.735
1463.13  28.794  23.735
1463.63  28.794  23.735
1464.13  28.794  23.735
1464.63  28.794  23.766
1465.13  28.794  23.766
1465.63  28.794  23.735
1466.13  28.902  23.735
1466.63  28.794  23.735
1467.13  28.794  23.705
1467.63  28.902  23.705
1468.13  28.794  23.705
1468.63  28.794  23.766
1469.13  28.794  23.735
1469.63  28.794  23.735
1470.13  28.902  23.735
1470.63  28.794  23.735
1471.13  28.578  23.766
1471.63  28.902  23.735
1472.13  28.686  23.735
1472.63  28.902  23.705
1473.13  28.686  23.735
1473.63  28.902  23.766
1474.13  28.902  23.735
1474.63  29.119  23.735
1475.13  28.794  23.735
1475.63  28.902  23.735
1476.13  28.902  23.735
1476.63  28.794  23.735
1477.13  28.902  23.735
1477.63  28.902  23.735
1478.13  28.902  23.766
1478.63  28.902  23.766
1479.13  28.902  23.705
1479.63  28.902  23.735
1480.13  28.902  23.828
1480.63  28.902  23.735
1481.13  29.011  23.705
1481.63  28.902  23.735
1482.13  28.902  23.735
1482.63  28.902  23.766
1483.13  28.902  23.766
1483.63  28.902  23.735
1484.13  28.902  23.735
1484.63  28.902  23.735
1485.13  28.902  23.735
1485.63  28.902  23.735
1486.13  28.686  23.735
1486.63  28.902  23.735
1487.13  28.902  23.705
1487.63  29.011  23.766
1488.13  28.902  23.766
1488.63  28.902  23.766
1489.13  28.902  23.766
1489.63  28.902  23.766
1490.13  29.011  23.735
1490.63  28.902  23.735
1491.13  28.902  23.735
1491.63  28.902  23.735
1492.13  28.794  23.735
1492.63  28.902  23.705
1493.13  29.011  23.705
1493.63  28.902  23.766
1494.13  28.794  23.735
1494.63  28.902  23.735
1495.13  28.902  23.735
1495.63  28.902  23.735
1496.13  28.902  23.766
1496.63  28.902  23.766
1497.13  28.902  23.735
1497.63  28.902  23.735
1498.13  28.902  23.735
1498.63  28.902  23.735
1499.13  28.902  23.766
1499.63  28.902  23.797
1500.13  28.794  23.766
1500.63  29.011  23.735
1501.13  29.119  23.735
1501.63  28.902  23.735
1502.13  28.902  23.735
1502.63  28.902  23.735
1503.13  28.794  23.766
1503.63  29.011  23.735
1504.13  28.902  23.766
1504.63  28.902  23.766
1505.13  28.902  23.735
1505.63  28.902  23.735
1506.13  28.794  23.766
1506.63  29.011  23.766
1507.13  28.902  23.766
1507.63  28.902  23.766
1508.13  28.794  23.735
1508.63  28.902  23.766
1509.13  28.902  23.735
1509.63  28.902  23.735
1510.13  29.011  23.735
1510.63  28.902  23.766
1511.13  28.902  23.735
1511.63  28.794  23.766
1512.13  29.011  23.735
1512.63  28.902  23.735
1513.13  28.902  23.735
1513.63  28.902  23.766
1514.13  28.902  23.766
1514.63  28.902  23.735
1515.13  28.902  23.766
1515.63  28.902  23.705
1516.13  28.902  23.735
1516.63  29.011  23.735
1517.13  28.902  23.735
1517.63  28.902  23.735
1518.13  28.902  23.766
1518.63  29.011  23.797
1519.13  28.902  23.735
1519.63  28.902  23.735
1520.13  28.902  23.735
1520.63  28.902  23.735
1521.13  29.011  23.766
1521.63  28.902  23.766
1522.13  29.119  23.766
1522.63  29.011  23.766
1523.13  28.902  23.735
1523.63  28.902  23.766
1524.13  28.794  23.766
1524.63  29.011  23.735
1525.13  28.902  23.735
1525.63  28.902  23.735
1526.13  28.902  23.705
1526.63  28.794  23.766
1527.13  29.011  23.766
1527.63  29.011  23.735
1528.13  28.902  23.735
1528.63  28.902  23.797
1529.13  29.011  23.766
1529.64  28.902  23.766
1530.14  28.902  23.735
1530.64  28.902  23.735
1531.14  29.011  23.735
1531.64  28.902  23.674
1532.14  29.011  23.766
1532.64  29.011  23.735
1533.14  28.902  23.705
1533.64  29.011  23.735
1534.14  29.011  23.735
1534.64  28.902  23.766
1535.14  28.902  23.705
1535.64  28.902  23.735
1536.14  29.011  23.766
1536.64  29.011  23.735
1537.14  28.902  23.766
1537.64  29.011  23.766
1538.14  28.902  23.735
1538.64  28.902  23.766
1539.14  28.902  23.766
1539.64  28.902  23.735
1540.14  29.011  23.766
1540.64  28.902  23.735
1541.14  28.902  23.766
1541.64  29.011  23.735
1542.14  28.902  23.766
1542.64  28.902  23.735
1543.14  29.119  23.674
1543.64  29.011  23.735
1544.14  29.011  23.735
1544.64  29.011  23.766
1545.14  28.902  23.735
1545.64  29.011  23.735
1546.14  29.011  23.705
1546.64  29.011  23.766
1547.14  29.011  23.797
1547.64  29.011  23.766
1548.14  29.011  23.735
1548.64  29.011  23.735
1549.14  29.011  23.766
1549.64  28.902  23.735
1550.14  28.902  23.735
1550.64  29.011  23.766
1551.14  29.119  23.766
1551.64  28.902  23.766
1552.14  29.011  23.766
1552.64  29.011  23.766
1553.14  29.011  23.766
1553.64  29.011  23.735
1554.14  29.011  23.766
1554.64  29.011  23.735
1555.14  29.011  23.735
1555.64  29.011  23.766
1556.14  29.011  23.766
1556.64  28.902  23.735
1557.14  28.902  23.735
1557.64  29.011  23.766
1558.14  28.902  23.735
1558.64  28.902  23.735
1559.14  29.011  23.735
1559.64  29.011  23.766
1560.14  29.119  23.735
1560.64  28.902  23.735
1561.14  29.011  23.735
1561.64  28.794  23.766
1562.14  28.794  23.766
1562.64  29.011  23.766
1563.14  28.902  23.766
1563.64  29.119  23.766
1564.14  29.011  23.766
1564.64  29.011  23.735
1565.14  29.119  23.766
1565.64  29.011  23.735
1566.14  29.119  23.766
1566.64  29.011  23.735
1567.14  29.011  23.766
1567.64  29.011  23.766
1568.14  29.011  23.735
1568.64  29.011  23.735
1569.14  29.011  23.766
1569.64  29.011  23.766
1570.14  29.011  23.766
1570.64  29.011  23.766
1571.14  28.902  23.766
1571.64  29.011  23.766
1572.14  29.011  23.735
1572.64  29.011  23.735
1573.14  29.011  23.797
1573.64  29.119  23.735
1574.14  29.011  23.797
1574.64  29.011  23.797
1575.14  29.119  23.766
1575.64  29.011  23.735
1576.14  29.011  23.797
1576.64  29.119  23.735
1577.14  29.011  23.766
1577.64  29.011  23.766
1578.14  29.119  23.766
1578.64  29.011  23.735
1579.14  29.011  23.766
1579.64  29.011  23.735
1580.14  29.011  23.735
1580.64  29.011  23.766
1581.14  29.011  23.766
1581.64  29.011  23.735
1582.14  29.011  23.735
1582.64  29.011  23.735
1583.14  29.011  23.766
1583.64  29.011  23.766
1584.14  29.011  23.766
1584.64  29.119  23.735
1585.14  29.119  23.766
1585.64  29.011  23.735
1586.14  29.011  23.766
1586.64  29.119  23.766
1587.14  29.011  23.735
1587.64  29.011  23.766
1588.14  29.011  23.766
1588.64  29.011  23.766
1589.14  29.011  23.735
1589.64  29.011  23.766
1590.14  29.011  23.766
1590.64  29.119  23.766
1591.14  29.119  23.766
1591.64  29.011  23.766
1592.14  29.119  23.705
1592.64  29.011  23.735
1593.14  29.011  23.766
1593.64  29.011  23.766
1594.14  29.119  23.735
1594.64  29.011  23.766
1595.14  29.011  23.766
1595.64  29.011  23.766
1596.14  29.011  23.766
1596.64  29.011  23.735
1597.14  29.119  23.766
1597.64  29.119  23.766
1598.14  29.119  23.766
1598.64  29.119  23.828
1599.14  29.119  23.766
1599.64  29.119  23.766
1600.14  29.011  23.766
1600.64  29.119  23.735
1601.14  29.119  23.766
1601.64  29.119  23.766
1602.14  29.011  23.766
1602.64  29.227  23.735
1603.14  28.902  23.766
1603.64  29.011  23.797
1604.14  29.011  23.735
1604.64  29.227  23.766
1605.14  29.011  23.766
1605.64  29.119  23.766
1606.14  29.011  23.766
1606.64  29.011  23.735
1607.14  29.011  23.766
1607.64  29.011  23.766
1608.14  29.119  23.735
1608.64  29.227  23.766
1609.14  29.119  23.735
1609.64  29.119  23.766
1610.14  29.011  23.735
1610.64  29.119  23.797
1611.14  29.227  23.766
1611.64  29.119  23.766
1612.14  29.011  23.766
1612.64  29.011  23.735
1613.14  29.011  23.766
1613.64  29.119  23.766
1614.14  28.902  23.766
1614.64  28.902  23.735
1615.14  29.011  23.735
1615.64  29.227  23.766
1616.14  29.119  23.766
1616.64  29.011  23.797
1617.14  29.119  23.797
1617.64  29.119  23.735
1618.14  28.902  23.766
1618.64  29.119  23.766
1619.14  29.227  23.735
1619.64  29.227  23.766
1620.14  29.119  23.735
1620.64  29.119  23.828
1621.14  29.119  23.766
1621.64  29.227  23.735
1622.14  29.119  23.766
1622.64  29.119  23.766
1623.14  29.011  23.735
1623.64  29.011  23.766
1624.14  29.011  23.766
1624.64  29.227  23.735
1625.14  29.119  23.766
1625.64  29.227  23.766
1626.14  29.227  23.766
1626.64  29.227  23.766
1627.14  29.119  23.766
1627.64  29.119  23.735
1628.14  29.119  23.766
1628.64  29.119  23.766
1629.14  29.119  23.766
1629.64  29.119  23.735
1630.14  29.119  23.735
1630.64  29.119  23.766
1631.14  29.011  23.766
1631.64  29.119  23.766
1632.14  29.119  23.766
1632.64  29.119  23.735
1633.14  29.011  23.735
1633.64  29.119  23.766
1634.14  29.119  23.766
1634.64  29.227  23.797
1635.14  28.902  23.766
1635.64  29.227  23.735
1636.14  29.119  23.797
1636.64  29.227  23.766
1637.14  29.119  23.766
1637.64  29.227  23.766
1638.14  29.119  23.766
1638.64  29.227  23.766
1639.14  29.119  23.797
1639.64  29.119  23.766
1640.14  29.119  23.797
1640.64  29.119  23.766
1641.14  29.119  23.766
1641.64  29.119  23.766
1642.14  29.119  23.766
1642.65  29.119  23.766
1643.15  29.119  23.766
1643.65  29.119  23.766
1644.15  29.227  23.797
1644.65  29.119  23.735
1645.15  29.119  23.766
1645.65  29.119  23.766
1646.15  29.119  23.766
1646.65  29.227  23.766
1647.15  29.119  23.766
1647.65  29.119  23.735
1648.15  29.119  23.797
1648.65  29.227  23.735
1649.15  29.011  23.735
1649.65  29.227  23.766
1650.15  29.119  23.735
1650.65  29.119  23.766
1651.15  29.119  23.766
1651.65  28.902  23.766
1652.15  29.227  23.766
1652.65  29.011  23.766
1653.15  29.227  23.735
1653.65  29.227  23.735
1654.15  29.119  23.766
1654.65  29.119  23.735
1655.15  29.227  23.766
1655.65  29.119  23.766
1656.15  29.011  23.766
1656.65  29.335  23.766
1657.15  29.119  23.766
1657.65  29.119  23.797
1658.15  29.227  23.766
1658.65  29.119  23.797
1659.15  29.227  23.766
1659.65  29.227  23.828
1660.15  29.227  23.766
1660.65  29.227  23.735
1661.15  29.227  23.766
1661.65  29.227  23.735
1662.15  29.119  23.766
1662.65  29.119  23.766
1663.15  29.119  23.797
1663.65  29.119  23.766
1664.15  29.119  23.735
1664.65  29.119  23.766
1665.15  29.227  23.766
1665.65  29.227  23.766
1666.15  29.119  23.766
1666.65  29.011  23.766
1667.15  29.011  23.766
1667.65  29.227  23.766
1668.15  29.119  23.797
1668.65  29.119  23.766
1669.15  29.119  23.766
1669.65  29.119  23.766
1670.15  29.227  23.735
1670.65  29.119  23.766
1671.15  29.119  23.735
1671.65  29.119  23.766
1672.15  29.119  23.766
1672.65  29.227  23.735
1673.15  29.119  23.797
1673.65  29.119  23.735
1674.15  29.227  23.705
1674.65  29.119  23.705
1675.15  29.119  23.766
1675.65  29.011  23.766
1676.15  29.119  23.705
1676.65  29.119  23.735
1677.15  29.119  23.797
1677.65  29.119  23.766
1678.15  29.119  23.766
1678.65  29.227  23.735
1679.15  29.119  23.766
1679.65  29.119  23.766
1680.15  29.119  23.766
1680.65  29.227  23.766
1681.15  29.227  23.766
1681.65  29.227  23.766
1682.15  29.227  23.766
1682.65  29.227  23.766
1683.15  29.011  23.766
1683.65  29.227  23.766
1684.15  29.011  23.766
1684.65  29.011  23.766
1685.15  29.011  23.735
1685.65  29.119  23.766
1686.15  29.227  23.766
1686.65  29.227  23.766
1687.15  29.227  23.766
1687.65  29.011  23.766
1688.15  29.335  23.735
1688.65  29.227  23.766
1689.15  29.227  23.766
1689.65  29.227  23.735
1690.15  29.227  23.797
1690.65  29.444  23.766
1691.15  29.119  23.766
1691.65  29.227  23.766
1692.15  29.119  23.766
1692.65  29.227  23.766
1693.15  29.227  23.766
1693.65  29.227  23.766
1694.15  29.119  23.766
1694.65  29.227  23.766
1695.15  29.227  23.797
1695.65  29.335  23.766
1696.15  29.119  23.766
1696.65  29.335  23.766
1697.15  29.227  23.735
1697.65  29.119  23.735
1698.15  29.227  23.766
1698.65  29.227  23.766
1699.15  29.119  23.766
1699.65  29.119  23.766
1700.15  29.335  23.766
1700.65  29.227  23.766
1701.15  29.227  23.735
1701.65  29.011  23.766
1702.15  29.227  23.766
1702.65  29.227  23.766
1703.15  29.335  23.766
1703.65  29.227  23.766
1704.15  29.119  23.797
1704.65  29.227  23.766
1705.15  29.227  23.797
1705.65  29.335  23.766
1706.15  29.335  23.766
1706.65  29.119  23.766
1707.15  29.227  23.766
1707.65  29.444  23.766
1708.15  29.119  23.766
1708.65  29.227  23.797
1709.15  29.227  23.797
1709.65  29.227  23.766
1710.15  29.227  23.766
1710.65  29.227  23.766
1711.15  29.227  23.766
1711.65  29.227  23.766
1712.15  29.227  23.766
1712.65  29.227  23.766
1713.15  29.227  23.766
1713.65  29.227  23.766
1714.15  29.011  23.766
1714.65  29.227  23.766
1715.15  29.119  23.766
1715.65  29.227  23.797
1716.15  29.227  23.766
1716.65  29.227  23.797
1717.15  29.227  23.766
1717.65  29.227  23.766
1718.15  29.227  23.797
1718.65  29.227  23.766
1719.15  29.227  23.797
1719.65  29.227  23.766
1720.15  29.227  23.797
1720.65  29.227  23.766
1721.15  29.227  23.797
1721.65  29.335  23.766
1722.15  29.335  23.797
1722.65  29.335  23.797
1723.15  29.227  23.797
1723.65  29.227  23.828
1724.15  29.227  23.766
1724.65  29.335  23.735
1725.15  29.227  23.766
1725.65  29.227  23.766
1726.15  29.227  23.735
1726.65  29.227  23.766
1727.15  29.227  23.797
1727.65  29.227  23.766
1728.15  29.335  23.766
1728.65  29.227  23.766
1729.15  29.227  23.766
1729.65  29.119  23.797
1730.15  29.335  23.766
1730.65  29.227  23.797
1731.15  29.335  23.766
1731.65  29.335  23.766
1732.15  29.227  23.766
1732.65  29.227  23.766
1733.15  29.335  23.797
1733.65  29.227  23.766
1734.15  29.335  23.797
1734.65  29.119  23.797
1735.15  29.335  23.766
1735.65  29.227  23.766
1736.15  29.227  23.766
1736.65  29.335  23.797
1737.15  29.227  23.766
1737.65  29.227  23.766
1738.15  29.227  23.766
1738.65  29.227  23.766
1739.15  29.227  23.766
1739.65  29.227  23.797
1740.15  29.227  23.766
1740.65  29.227  23.766
1741.15  29.227  23.797
1741.65  29.119  23.766
1742.15  29.335  23.766
1742.65  29.227  23.766
1743.15  29.227  23.766
1743.65  29.227  23.766
1744.15  29.335  23.766
1744.65  29.227  23.766
1745.15  29.227  23.766
1745.65  29.227  23.766
1746.15  29.335  23.735
1746.65  29.227  23.797
1747.15  29.227  23.797
1747.65  29.227  23.766
1748.15  29.119  23.797
1748.65  29.227  23.735
1749.15  29.227  23.766
1749.65  29.335  23.735
1750.15  29.335  23.766
1750.65  29.227  23.735
1751.15  29.119  23.766
1751.65  29.227  23.797
1752.15  29.227  23.766
1752.65  29.335  23.766
1753.15  29.227  23.766
1753.65  29.119  23.766
1754.15  29.227  23.797
1754.65  29.335  23.797
1755.15  29.335  23.766
1755.66  29.227  23.766
1756.16  29.227  23.766
1756.66  29.227  23.766
1757.16  29.227  23.797
1757.66  29.335  23.766
1758.16  29.335  23.766
1758.66  29.227  23.766
1759.16  29.227  23.766
1759.66  29.335  23.766
1760.16  29.335  23.797
1760.66  29.335  23.766
1761.16  29.335  23.735
1761.66  29.335  23.797
1762.16  29.227  23.797
1762.66  29.227  23.766
1763.16  29.227  23.735
1763.66  29.335  23.766
1764.16  29.227  23.766
1764.66  29.227  23.797
1765.16  29.335  23.766
1765.66  29.227  23.766
1766.16  29.227  23.735
1766.66  29.335  23.766
1767.16  29.227  23.766
1767.66  29.227  23.766
1768.16  29.227  23.797
1768.66  29.119  23.828
1769.16  29.444  23.766
1769.66  29.227  23.766
1770.16  29.444  23.766
1770.66  29.335  23.766
1771.16  29.227  23.735
1771.66  29.335  23.766
1772.16  29.335  23.735
1772.66  29.227  23.766
1773.16  29.335  23.766
1773.66  29.335  23.797
1774.16  29.335  23.735
1774.66  29.335  23.766
1775.16  29.335  23.766
1775.66  29.119  23.766
1776.16  29.335  23.797
1776.66  29.335  23.766
1777.16  29.227  23.766
1777.66  29.227  23.797
1778.16  29.335  23.766
1778.66  29.335  23.766
1779.16  29.227  23.766
1779.66  29.227  23.766
1780.16  29.335  23.797
1780.66  29.335  23.766
1781.16  29.444  23.797
1781.66  29.227  23.766
1782.16  29.335  23.766
1782.66  29.227  23.735
1783.16  29.335  23.735
1783.66  29.335  23.766
1784.16  29.227  23.766
1784.66  29.335  23.766
1785.16  29.335  23.766
1785.66  29.335  23.766
1786.16  29.335  23.766
1786.66  29.335  23.797
1787.16  29.335  23.766
1787.66  29.227  23.797
1788.16  29.227  23.766
1788.66  29.444  23.766
1789.16  29.227  23.766
1789.66  29.335  23.766
1790.16  29.335  23.766
1790.66  29.335  23.797
1791.16  29.444  23.797
1791.66  29.335  23.797
1792.16  29.227  23.766
1792.66  29.335  23.797
1793.16  29.227  23.828
1793.66  29.335  23.766
1794.16  29.119  23.766
1794.66  29.335  23.766
1795.16  29.227  23.797
1795.66  29.335  23.766
1796.16  29.335  23.797
1796.66  29.335  23.797
1797.16  29.227  23.766
1797.66  29.335  23.797
1798.16  29.227  23.766
1798.66  29.335  23.735
1799.16  29.335  23.766
1799.66  29.335  23.766
1800.16  29.227  23.766
1800.66  29.335  23.766
1801.16  29.227  23.766
1801.66  29.227  23.766
1802.16  29.335  23.766
1802.66  29.335  23.797
1803.16  29.227  23.797
1803.66  29.335  23.766
1804.16  29.335  23.797
1804.66  29.335  23.766
1805.16  29.335  23.766
1805.66  29.444  23.735
1806.16  29.335  23.766
1806.66  29.335  23.735
1807.16  29.335  23.828
1807.66  29.335  23.797
1808.16  29.227  23.797
1808.66  29.335  23.735
1809.16  29.335  23.797
1809.66  29.444  23.797
1810.16  29.444  23.766
1810.66  29.335  23.797
1811.16  29.335  23.735
1811.66  29.335  23.735
1812.16  29.444  23.797
1812.66  29.335  23.797
1813.16  29.335  23.766
1813.66  29.335  23.766
1814.16  29.335  23.766
1814.66  29.444  23.766
1815.16  29.335  23.797
1815.66  29.552  23.766
1816.16  29.335  23.766
1816.66  29.227  23.797
1817.16  29.335  23.766
1817.66  29.335  23.766
1818.16  29.335  23.797
1818.66  29.335  23.766
1819.16  29.335  23.797
1819.66  29.335  23.766
1820.16  29.335  23.797
1820.66  29.335  23.797
1821.16  29.444  23.797
1821.66  29.227  23.797
1822.16  29.444  23.766
1822.66  29.335  23.797
1823.16  29.335  23.797
1823.66  29.444  23.766
1824.16  29.335  23.766
1824.66  29.444  23.766
1825.16  29.227  23.766
1825.66  29.444  23.797
1826.16  29.335  23.797
1826.66  29.227  23.766
1827.16  29.444  23.766
1827.66  29.335  23.766
1828.16  29.335  23.705
1828.66  29.444  23.797
1829.16  29.444  23.797
1829.66  29.227  23.797
1830.16  29.335  23.766
1830.66  29.444  23.766
1831.16  29.335  23.766
1831.66  29.335  23.766
1832.16  29.335  23.797
1832.66  29.444  23.797
1833.16  29.335  23.766
1833.66  29.335  23.766
1834.16  29.444  23.797
1834.66  29.335  23.766
1835.16  29.335  23.766
1835.66  29.444  23.797
1836.16  29.444  23.828
1836.66  29.444  23.766
1837.16  29.335  23.766
1837.66  29.552  23.766
1838.16  29.335  23.797
1838.66  29.335  23.766
1839.16  29.444  23.705
1839.66  29.444  23.766
1840.16  29.444  23.766
1840.66  29.444  23.797
1841.16  29.335  23.797
1841.66  29.335  23.735
1842.16  29.335  23.766
1842.66  29.335  23.797
1843.16  29.335  23.766
1843.66  29.444  23.766
1844.16  29.444  23.766
1844.66  29.227  23.766
1845.16  29.444  23.797
1845.66  29.335  23.797
1846.16  29.444  23.828
1846.66  29.335  23.797
1847.16  29.444  23.766
1847.66  29.660  23.797
1848.16  29.335  23.797
1848.66  29.444  23.797
1849.16  29.335  23.766
1849.66  29.335  23.797
1850.16  29.444  23.797
1850.66  29.552  23.797
1851.16  29.444  23.828
1851.66  29.444  23.797
1852.16  29.444  23.797
1852.66  29.335  23.797
1853.16  29.444  23.766
1853.66  29.444  23.766
1854.16  29.444  23.797
1854.66  29.335  23.797
1855.16  29.227  23.766
1855.66  29.552  23.797
1856.16  29.444  23.828
1856.66  29.552  23.766
1857.16  29.444  23.828
1857.66  29.660  23.797
1858.16  29.660  23.766
1858.66  29.444  23.797
1859.16  29.444  23.828
1859.66  29.335  23.828
1860.16  29.444  23.797
1860.66  29.335  23.828
1861.16  29.552  23.797
1861.66  29.444  23.797
1862.16  29.444  23.797
1862.66  29.335  23.797
1863.16  29.335  23.735
1863.66  29.552  23.797
1864.16  29.444  23.797
1864.66  29.444  23.797
1865.16  29.444  23.797
1865.66  29.444  23.766
1866.16  29.552  23.735
1866.66  29.227  23.766
1867.16  29.444  23.735
1867.66  29.335  23.766
1868.16  29.444  23.828
1868.66  29.444  23.797
1869.17  29.444  23.797
1869.67  29.444  23.797
1870.17  29.335  23.797
1870.67  29.227  23.797
1871.17  29.444  23.766
1871.67  29.444  23.828
1872.17  29.552  23.766
1872.67  29.444  23.797
1873.17  29.444  23.797
1873.67  29.444  23.735
1874.17  29.444  23.766
1874.67  29.444  23.797
1875.17  29.444  23.766
1875.67  29.444  23.828
1876.17  29.444  23.828
1876.67  29.444  23.797
1877.17  29.444  23.828
1877.67  29.444  23.797
1878.17  29.444  23.766
1878.67  29.444  23.797
1879.17  29.335  23.797
1879.67  29.444  23.797
1880.17  29.444  23.766
1880.67  29.444  23.797
1881.17  29.444  23.797
1881.67  29.552  23.797
1882.17  29.335  23.797
1882.67  29.552  23.797
1883.17  29.552  23.797
1883.67  29.335  23.797
1884.17  29.444  23.797
1884.67  29.444  23.766
1885.17  29.444  23.797
1885.67  29.444  23.828
1886.17  29.444  23.766
1886.67  29.444  23.797
1887.17  29.444  23.766
1887.67  29.227  23.797
1888.17  29.335  23.828
1888.67  29.444  23.797
1889.17  29.444  23.797
1889.67  29.444  23.797
1890.17  29.552  23.797
1890.67  29.444  23.797
1891.17  29.444  23.797
1891.67  29.335  23.797
1892.17  29.444  23.797
1892.67  29.444  23.797
1893.17  29.552  23.797
1893.67  29.444  23.797
1894.17  29.444  23.797
1894.67  29.444  23.766
1895.17  29.444  23.797
1895.67  29.444  23.828
1896.17  29.444  23.766
1896.67  29.444  23.797
1897.17  29.444  23.797
1897.67  29.444  23.766
1898.17  29.444  23.797
1898.67  29.444  23.766
1899.17  29.335  23.797
1899.67  29.444  23.766
1900.17  29.335  23.797
1900.67  29.552  23.766
1901.17  29.335  23.797
1901.67  29.444  23.797
1902.17  29.444  23.797
1902.67  29.335  23.797
1903.17  29.552  23.797
1903.67  29.552  23.828
1904.17  29.552  23.797
1904.67  29.444  23.766
1905.17  29.444  23.797
1905.67  29.444  23.797
1906.17  29.444  23.797
1906.67  29.552  23.797
1907.17  29.444  23.797
1907.67  29.444  23.797
1908.17  29.444  23.797
1908.67  29.444  23.797
1909.17  29.444  23.735
1909.67  29.335  23.797
1910.17  29.444  23.797
1910.67  29.444  23.797
1911.17  29.444  23.766
1911.67  29.444  23.797
1912.17  29.552  23.797
1912.67  29.335  23.797
1913.17  29.335  23.766
1913.67  29.444  23.797
1914.17  29.335  23.797
1914.67  29.444  23.797
1915.17  29.444  23.766
1915.67  29.552  23.797
1916.17  29.444  23.797
1916.67  29.444  23.797
1917.17  29.444  23.797
1917.67  29.552  23.766
1918.17  29.335  23.797
1918.67  29.444  23.797
1919.17  29.444  23.828
1919.67  29.444  23.797
1920.17  29.444  23.828
1920.67  29.227  23.797
1921.17  29.552  23.797
1921.67  29.552  23.859
1922.17  29.444  23.797
1922.67  29.335  23.797
1923.17  29.444  23.797
1923.67  29.444  23.828
1924.17  29.444  23.797
1924.67  29.444  23.797
1925.17  29.552  23.797
1925.67  29.552  23.797
1926.17  29.444  23.797
1926.67  29.444  23.797
1927.17  29.552  23.797
1927.67  29.444  23.797
1928.17  29.335  23.797
1928.67  29.444  23.797
1929.17  29.444  23.766
1929.67  29.444  23.797
1930.17  29.444  23.797
1930.67  29.552  23.828
1931.17  29.444  23.797
1931.67  29.335  23.797
1932.17  29.444  23.797
1932.67  29.552  23.766
1933.17  29.444  23.797
1933.67  29.444  23.797
1934.17  29.444  23.828
1934.67  29.444  23.797
1935.17  29.444  23.797
1935.67  29.444  23.828
1936.17  29.552  23.797
1936.67  29.552  23.828
1937.17  29.444  23.797
1937.67  29.660  23.766
1938.17  29.552  23.797
1938.67  29.444  23.797
1939.17  29.552  23.797
1939.67  29.444  23.766
1940.17  29.552  23.797
1940.67  29.552  23.797
1941.17  29.552  23.797
1941.67  29.552  23.766
1942.17  29.660  23.797
1942.67  29.444  23.797
1943.17  29.552  23.797
1943.67  29.552  23.797
1944.17  29.444  23.797
1944.67  29.444  23.797
1945.17  29.552  23.797
1945.67  29.552  23.766
1946.17  29.444  23.828
1946.67  29.444  23.797
1947.17  29.552  23.766
1947.67  29.552  23.828
1948.17  29.552  23.797
1948.67  29.660  23.828
1949.17  29.444  23.797
1949.67  29.444  23.797
1950.17  29.444  23.797
1950.67  29.552  23.797
1951.17  29.444  23.797
1951.67  29.552  23.797
1952.17  29.444  23.797
1952.67  29.444  23.828
1953.17  29.768  23.797
1953.67  29.444  23.705
1954.17  29.444  23.766
1954.67  29.444  23.797
1955.17  29.444  23.828
1955.67  29.335  23.828
1956.17  29.444  23.766
1956.67  29.552  23.828
1957.17  29.444  23.797
1957.67  29.552  23.797
1958.17  29.444  23.797
1958.67  29.444  23.797
1959.17  29.552  23.766
1959.67  29.552  23.797
1960.17  29.552  23.797
1960.67  29.444  23.735
1961.17  29.552  23.797
1961.67  29.444  23.766
1962.17  29.552  23.797
1962.67  29.444  23.797
1963.17  29.444  23.797
1963.67  29.444  23.797
1964.17  29.444  23.797
1964.67  29.552  23.797
1965.17  29.444  23.797
1965.67  29.552  23.797
1966.17  29.552  23.797
1966.67  29.444  23.797
1967.17  29.552  23.797
1967.67  29.660  23.797
1968.17  29.552  23.797
1968.67  29.660  23.766
1969.17  29.227  23.797
1969.67  29.552  23.766
1970.17  29.444  23.797
1970.67  29.552  23.797
1971.17  29.552  23.828
1971.67  29.552  23.797
1972.17  29.552  23.797
1972.67  29.444  23.797
1973.17  29.552  23.797
1973.67  29.444  23.797
1974.17  29.552  23.766
1974.67  29.552  23.797
1975.17  29.444  23.797
1975.67  29.552  23.797
1976.17  29.552  23.797
1976.67  29.552  23.828
1977.17  29.552  23.797
1977.67  29.660  23.735
1978.17  29.552  23.828
1978.67  29.552  23.797
1979.17  29.552  23.766
1979.67  29.552  23.797
1980.17  29.552  23.797
1980.67  29.552  23.797
1981.17  29.552  23.797
1981.67  29.552  23.797
1982.18  29.660  23.766
1982.68  29.552  23.828
1983.18  29.552  23.797
1983.68  29.444  23.797
1984.18  29.552  23.766
1984.68  29.444  23.766
1985.18  29.444  23.797
1985.68  29.552  23.766
1986.18  29.552  23.797
1986.68  29.552  23.797
1987.18  29.552  23.797
1987.68  29.660  23.828
1988.18  29.444  23.797
1988.68  29.552  23.797
1989.18  29.552  23.797
1989.68  29.444  23.797
1990.18  29.552  23.766
1990.68  29.552  23.797
1991.18  29.552  23.797
1991.68  29.552  23.797
1992.18  29.444  23.797
1992.68  29.444  23.828
1993.18  29.552  23.797
1993.68  29.444  23.797
1994.18  29.552  23.797
1994.68  29.552  23.828
1995.18  29.552  23.797
1995.68  29.660  23.797
1996.18  29.552  23.797
1996.68  29.660  23.828
1997.18  29.660  23.828
1997.68  29.552  23.766
1998.18  29.552  23.797
1998.68  29.552  23.797
1999.18  29.552  23.797
1999.68  29.552  23.797
2000.18  29.552  23.797
2000.68  29.552  23.797
2001.18  29.552  23.797
2001.68  29.552  23.797
2002.18  29.552  23.797
2002.68  29.552  23.828
2003.18  29.552  23.797
2003.68  29.660  23.828
2004.18  29.552  23.797
2004.68  29.552  23.828
2005.18  29.552  23.797
2005.68  29.660  23.797
2006.18  29.552  23.797
2006.68  29.660  23.828
2007.18  29.552  23.797
2007.68  29.552  23.797
2008.18  29.660  23.828
2008.68  29.660  23.766
2009.18  29.552  23.828
2009.68  29.552  23.797
2010.18  29.552  23.797
2010.68  29.552  23.797
2011.18  29.660  23.828
2011.68  29.552  23.828
2012.18  29.552  23.797
2012.68  29.660  23.797
2013.18  29.552  23.766
2013.68  29.552  23.766
2014.18  29.552  23.797
2014.68  29.768  23.797
2015.18  29.660  23.797
2015.68  29.552  23.766
2016.18  29.552  23.797
2016.68  29.552  23.797
2017.18  29.552  23.766
2017.68  29.660  23.766
2018.18  29.660  23.859
2018.68  29.552  23.797
2019.18  29.444  23.828
2019.68  29.660  23.797
2020.18  29.552  23.797
2020.68  29.444  23.797
2021.18  29.444  23.797
2021.68  29.552  23.797
2022.18  29.660  23.828
2022.68  29.552  23.797
2023.18  29.660  23.797
2023.68  29.552  23.797
2024.18  29.552  23.797
2024.68  29.552  23.766
2025.18  29.552  23.766
2025.68  29.552  23.797
2026.18  29.660  23.797
2026.68  29.552  23.797
2027.18  29.552  23.735
2027.68  29.660  23.797
2028.18  29.552  23.766
2028.68  29.660  23.797
2029.18  29.552  23.797
2029.68  29.660  23.766
2030.18  29.552  23.797
2030.68  29.552  23.797
2031.18  29.768  23.828
2031.68  29.552  23.859
2032.18  29.660  23.797
2032.68  29.660  23.828
2033.18  29.660  23.828
2033.68  29.552  23.828
2034.18  29.552  23.828
2034.68  29.552  23.797
2035.18  29.552  23.828
2035.68  29.552  23.797
2036.18  29.444  23.797
2036.68  29.660  23.828
2037.18  29.552  23.797
2037.68  29.768  23.797
2038.18  29.552  23.797
2038.68  29.660  23.828
2039.18  29.660  23.797
2039.68  29.660  23.797
2040.18  29.444  23.797
2040.68  29.660  23.797
2041.18  29.552  23.828
2041.68  29.768  23.797
2042.18  30.101  23.828
2042.68  29.660  23.766
2043.18  29.552  23.797
2043.68  29.660  23.766
2044.18  29.660  23.766
2044.68  29.444  23.797
2045.18  29.552  23.797
2045.68  29.335  23.797
2046.18  29.552  23.766
2046.68  29.552  23.797
2047.18  29.552  23.828
2047.68  29.660  23.766
2048.18  29.660  23.828
2048.68  29.660  23.797
2049.18  29.552  23.797
2049.68  29.660  23.828
2050.18  29.552  23.797
2050.68  29.552  23.797
2051.18  29.660  23.797
2051.68  29.660  23.797
2052.18  29.444  23.797
2052.68  29.444  23.859
2053.18  29.552  23.828
2053.68  29.660  23.828
2054.18  29.552  23.797
2054.68  29.552  23.766
2055.18  29.552  23.828
2055.68  29.768  23.735
2056.18  29.552  23.766
2056.68  29.660  23.797
2057.18  29.660  23.797
2057.68  29.660  23.828
2058.18  29.552  23.828
2058.68  29.768  23.797
2059.18  29.552  23.797
2059.68  29.660  23.797
2060.18  29.768  23.797
2060.68  29.660  23.797
2061.18  29.660  23.828
2061.68  29.552  23.797
2062.18  29.660  23.797
2062.68  29.552  23.828
2063.18  29.660  23.828
2063.68  29.660  23.828
2064.18  29.660  23.828
2064.68  29.660  23.797
2065.18  29.660  23.797
2065.68  29.660  23.828
2066.18  29.877  23.797
2066.68  29.768  23.797
2067.18  29.660  23.797
2067.68  29.552  23.797
2068.18  29.552  23.828
2068.68  29.660  23.828
2069.18  29.660  23.766
2069.68  29.660  23.828
2070.18  29.660  23.797
2070.68  29.660  23.828
2071.18  29.768  23.828
2071.68  29.768  23.766
2072.18  29.660  23.797
2072.68  29.660  23.797
2073.18  29.768  23.797
2073.68  29.552  23.797
2074.18  29.660  23.797
2074.68  29.660  23.797
2075.18  29.552  23.797
2075.68  29.660  23.828
2076.18  29.660  23.828
2076.68  29.660  23.797
2077.18  29.660  23.797
2077.68  29.552  23.828
2078.18  29.660  23.797
2078.68  29.660  23.828
2079.18  29.444  23.828
2079.68  29.552  23.828
2080.18  29.660  23.828
2080.68  29.660  23.828
2081.18  29.660  23.797
2081.68  29.660  23.797
2082.18  29.768  23.828
2082.68  29.660  23.797
2083.18  29.660  23.828
2083.68  29.660  23.735
2084.18  29.660  23.828
2084.68  29.552  23.797
2085.18  29.660  23.797
2085.68  29.660  23.797
2086.18  29.660  23.828
2086.68  29.768  23.797
2087.18  29.660  23.797
2087.68  29.660  23.797
2088.18  29.660  23.828
2088.68  29.660  23.797
2089.18  29.660  23.797
2089.68  29.552  23.797
2090.18  29.660  23.828
2090.68  29.660  23.797
2091.18  29.660  23.797
2091.68  29.660  23.797
2092.18  29.552  23.797
2092.68  29.444  23.828
2093.18  29.660  23.828
2093.68  29.552  23.828
2094.18  29.768  23.828
2094.68  29.552  23.828
2095.19  29.660  23.828
2095.69  29.660  23.797
2096.19  29.552  23.828
2096.69  29.552  23.766
2097.19  29.768  23.797
2097.69  29.660  23.859
2098.19  29.660  23.859
2098.69  29.660  23.797
2099.19  29.660  23.797
2099.69  29.768  23.859
2100.19  29.660  23.828
2100.69  29.768  23.766
2101.19  29.552  23.797
2101.69  29.660  23.859
2102.19  29.660  23.828
2102.69  29.768  23.797
2103.19  29.660  23.828
2103.69  29.660  23.828
2104.19  29.552  23.828
2104.69  29.660  23.797
2105.19  29.552  23.828
2105.69  29.552  23.797
2106.19  29.660  23.797
2106.69  29.660  23.797
2107.19  29.552  23.797
2107.69  29.660  23.828
2108.19  29.552  23.797
2108.69  29.660  23.828
2109.19  29.660  23.797
2109.69  29.768  23.766
2110.19  29.660  23.828
2110.69  29.660  23.797
2111.19  29.552  23.797
2111.69  29.552  23.828
2112.19  29.660  23.797
2112.69  29.877  23.797
2113.19  29.768  23.797
2113.69  29.660  23.797
2114.19  29.660  23.828
2114.69  29.660  23.859
2115.19  29.660  23.797
2115.69  29.660  23.797
2116.19  29.552  23.797
2116.69  29.552  23.828
2117.19  29.877  23.766
2117.69  29.768  23.797
2118.19  29.768  23.797
2118.69  29.660  23.797
2119.19  29.660  23.797
2119.69  29.660  23.797
2120.19  29.768  23.797
2120.69  29.660  23.828
2121.19  29.660  23.797
2121.69  29.660  23.797
2122.19  29.660  23.797
2122.69  29.660  23.828
2123.19  29.768  23.797
2123.69  29.552  23.797
2124.19  29.660  23.797
2124.69  29.552  23.828
2125.19  29.768  23.828
2125.69  29.660  23.797
2126.19  29.660  23.828
2126.69  29.660  23.797
2127.19  29.660  23.828
2127.69  29.768  23.828
2128.19  29.660  23.828
2128.69  29.768  23.828
2129.19  29.660  23.828
2129.69  29.660  23.828
2130.19  29.768  23.797
2130.69  29.660  23.828
2131.19  29.660  23.797
2131.69  29.660  23.797
2132.19  29.660  23.797
2132.69  29.768  23.797
2133.19  29.660  23.797
2133.69  29.660  23.797
2134.19  29.768  23.828
2134.69  29.768  23.828
2135.19  29.660  23.828
2135.69  29.660  23.766
2136.19  29.660  23.828
2136.69  29.660  23.797
2137.19  29.660  23.797
2137.69  29.660  23.797
2138.19  29.552  23.797
2138.69  29.660  23.828
2139.19  29.552  23.797
2139.69  29.660  23.766
2140.19  29.660  23.828
2140.69  29.768  23.828
2141.19  29.660  23.828
2141.69  29.660  23.797
2142.19  29.660  23.828
2142.69  29.660  23.828
2143.19  29.660  23.828
2143.69  29.660  23.797
2144.19  29.660  23.797
2144.69  29.660  23.828
2145.19  29.552  23.828
2145.69  29.660  23.797
2146.19  29.768  23.797
2146.69  29.660  23.859
2147.19  29.660  23.797
2147.69  29.552  23.797
2148.19  29.660  23.828
2148.69  29.768  23.797
2149.19  29.768  23.828
2149.69  29.552  23.828
2150.19  29.660  23.828
2150.69  29.552  23.828
2151.19  29.660  23.797
2151.69  29.660  23.797
2152.19  29.660  23.828
2152.69  29.660  23.797
2153.19  29.660  23.828
2153.69  29.660  23.797
2154.19  29.660  23.797
2154.69  29.660  23.859
2155.19  29.660  23.766
2155.69  29.768  23.797
2156.19  29.768  23.797
2156.69  29.660  23.797
2157.19  29.768  23.828
2157.69  29.985  23.797
2158.19  29.660  23.766
2158.69  29.660  23.828
2159.19  29.660  23.797
2159.69  29.660  23.828
2160.19  29.660  23.828
2160.69  29.768  23.828
2161.19  29.660  23.828
2161.69  29.768  23.859
2162.19  29.768  23.797
2162.69  29.660  23.828
2163.19  29.660  23.828
2163.69  29.768  23.828
2164.19  29.660  23.859
2164.69  29.768  23.859
2165.19  29.768  23.828
2165.69  29.768  23.828
2166.19  29.877  23.828
2166.69  29.660  23.859
2167.19  29.552  23.797
2167.69  29.768  23.828
2168.19  29.877  23.828
2168.69  29.660  23.797
2169.19  29.768  23.828
2169.69  29.768  23.828
2170.19  29.768  23.797
2170.69  29.660  23.828
2171.19  29.768  23.828
2171.69  29.768  23.828
2172.19  29.768  23.828
2172.69  29.768  23.797
2173.19  29.768  23.828
2173.69  29.768  23.797
2174.19  29.660  23.828
2174.69  29.660  23.828
2175.19  29.768  23.797
2175.69  29.768  23.859
2176.19  29.768  23.859
2176.69  29.660  23.828
2177.19  29.660  23.828
2177.69  29.660  23.797
2178.19  29.660  23.828
2178.69  29.660  23.797
2179.19  29.660  23.828
2179.69  29.660  23.828
2180.19  29.768  23.797
2180.69  29.768  23.828
2181.19  29.660  23.797
2181.69  29.768  23.828
2182.19  29.768  23.828
2182.69  29.768  23.797
2183.19  29.660  23.797
2183.69  29.768  23.797
2184.19  29.768  23.828
2184.69  29.768  23.797
2185.19  29.768  23.828
2185.69  29.660  23.828
2186.19  29.660  23.797
2186.69  29.768  23.828
2187.19  29.768  23.828
2187.69  29.552  23.797
2188.19  29.660  23.828
2188.69  29.552  23.828
2189.19  29.768  23.797
2189.69  29.768  23.797
2190.19  29.768  23.797
2190.69  29.768  23.828
2191.19  29.768  23.828
2191.69  29.768  23.797
2192.19  29.768  23.828
2192.69  29.768  23.828
2193.19  29.660  23.828
2193.69  29.877  23.797
2194.19  29.877  23.797
2194.69  29.768  23.828
2195.19  29.768  23.828
2195.69  29.660  23.828
2196.19  29.877  23.766
2196.69  29.552  23.828
2197.19  29.768  23.828
2197.70  29.768  23.828
2198.20  29.768  23.797
2198.70  29.877  23.797
2199.20  29.877  23.766
2199.70  29.768  23.828
2200.20  29.768  23.797
2200.70  29.768  23.828
2201.20  29.768  23.828
2201.70  29.768  23.828
2202.20  29.660  23.859
2202.70  29.768  23.828
2203.20  29.768  23.828
2203.70  29.768  23.859
2204.20  29.768  23.828
2204.70  29.877  23.828
2205.20  29.768  23.828
2205.70  29.768  23.859
2206.20  29.768  23.828
2206.70  29.768  23.766
2207.20  29.660  23.828
2207.70  29.768  23.828
2208.20  29.768  23.828
2208.70  29.660  23.828
2209.20  29.877  23.828
2209.70  29.877  23.828
2210.20  29.768  23.859
2210.70  29.768  23.828
2211.20  29.768  23.828
2211.70  29.768  23.859
2212.20  29.768  23.797
2212.70  29.660  23.828
2213.20  29.877  23.828
2213.70  29.768  23.828
2214.20  29.768  23.797
2214.70  29.768  23.797
2215.20  29.768  23.828
2215.70  29.768  23.828
2216.20  29.877  23.797
2216.70  29.660  23.797
2217.20  29.768  23.828
2217.70  29.768  23.828
2218.20  29.768  23.859
2218.70  29.768  23.828
2219.20  29.768  23.797
2219.70  29.768  23.828
2220.20  29.660  23.828
2220.70  29.877  23.828
2221.20  29.768  23.828
2221.70  29.877  23.797
2222.20  29.877  23.859
2222.70  29.985  23.828
2223.20  29.768  23.797
2223.70  29.768  23.828
2224.20  29.660  23.766
2224.70  29.768  23.828
2225.20  29.768  23.828
2225.70  29.877  23.828
2226.20  29.877  23.828
2226.70  29.768  23.828
2227.20  29.877  23.828
2227.70  29.768  23.859
2228.20  29.768  23.797
2228.70  29.768  23.828
2229.20  29.877  23.828
2229.70  29.877  23.797
2230.20  29.768  23.797
2230.70  29.768  23.828
2231.20  29.985  23.828
2231.70  29.768  23.797
2232.20  29.768  23.828
2232.70  29.768  23.859
2233.20  29.768  23.828
2233.70  29.768  23.859
2234.20  29.877  23.828
2234.70  29.768  23.859
2235.20  29.877  23.828
2235.70  29.768  23.828
2236.20  29.768  23.828
2236.70  29.877  23.828
2237.20  29.768  23.828
2237.70  29.660  23.828
2238.20  29.877  23.828
2238.70  29.877  23.859
2239.20  29.768  23.797
2239.70  29.660  23.828
2240.20  29.768  23.828
2240.70  29.768  23.828
2241.20  29.660  23.797
2241.70  29.877  23.828
2242.20  29.660  23.828
2242.70  29.768  23.828
2243.20  29.768  23.828
2243.70  29.768  23.797
2244.20  29.877  23.828
2244.70  29.768  23.859
2245.20  29.768  23.828
2245.70  29.660  23.859
2246.20  29.768  23.828
2246.70  29.768  23.828
2247.20  29.768  23.828
2247.70  29.660  23.828
2248.20  29.768  23.828
2248.70  29.877  23.859
2249.20  29.660  23.828
2249.70  29.877  23.859
2250.20  29.768  23.828
2250.70  29.768  23.859
2251.20  29.877  23.859
2251.70  29.768  23.859
2252.20  29.768  23.828
2252.70  29.768  23.828
2253.20  29.768  23.797
2253.70  29.768  23.828
2254.20  29.877  23.828
2254.70  29.768  23.828
2255.20  29.768  23.828
2255.70  29.768  23.828
2256.20  29.768  23.797
2256.70  29.660  23.828
2257.20  29.768  23.828
2257.70  29.877  23.828
2258.20  29.768  23.859
2258.70  29.660  23.797
2259.20  29.768  23.859
2259.70  29.660  23.828
2260.20  29.768  23.828
2260.70  29.768  23.828
2261.20  29.768  23.797
2261.70  29.660  23.797
2262.20  29.877  23.828
2262.70  29.660  23.797
2263.20  29.768  23.828
2263.70  29.877  23.859
2264.20  29.877  23.828
2264.70  29.768  23.797
2265.20  29.877  23.828
2265.70  29.877  23.797
2266.20  29.768  23.828
2266.70  29.877  23.828
2267.20  29.768  23.828
2267.70  29.877  23.828
2268.20  29.768  23.859
2268.70  29.877  23.797
2269.20  29.768  23.828
2269.70  29.877  23.828
2270.20  29.877  23.828
2270.70  29.877  23.859
2271.20  29.768  23.828
2271.70  29.877  23.828
2272.20  29.768  23.828
2272.70  29.768  23.859
2273.20  29.660  23.828
2273.70  29.768  23.797
2274.20  29.877  23.828
2274.70  29.877  23.859
2275.20  29.877  23.828
2275.70  29.877  23.828
2276.20  29.877  23.828
2276.70  29.768  23.828
2277.20  29.985  23.797
2277.70  29.768  23.828
2278.20  29.877  23.828
2278.70  29.768  23.828
2279.20  29.877  23.797
2279.70  29.985  23.828
2280.20  29.768  23.828
2280.70  29.768  23.859
2281.20  29.877  23.828
2281.70  29.768  23.797
2282.20  29.877  23.828
2282.70  29.877  23.828
2283.20  29.985  23.828
2283.70  29.768  23.828
2284.20  29.877  23.859
2284.70  29.768  23.828
2285.20  29.768  23.828
2285.70  29.877  23.828
2286.20  29.660  23.828
2286.70  29.877  23.828
2287.20  29.877  23.828
2287.70  29.660  23.766
2288.20  29.877  23.859
2288.70  29.877  23.828
2289.20  29.877  23.859
2289.70  29.768  23.797
2290.20  29.768  23.859
2290.70  29.768  23.828
2291.20  29.768  23.859
2291.70  29.985  23.828
2292.20  29.768  23.828
2292.70  29.877  23.828
2293.20  29.768  23.828
2293.70  29.877  23.828
2294.20  29.877  23.828
2294.70  29.768  23.859
2295.20  29.877  23.828
2295.70  29.985  23.828
2296.20  29.877  23.859
2296.70  29.768  23.828
2297.20  29.877  23.859
2297.70  29.877  23.828
2298.20  29.768  23.828
2298.70  29.985  23.828
2299.20  29.877  23.828
2299.70  29.985  23.828
2300.20  29.877  23.828
2300.70  29.877  23.828
2301.20  29.985  23.828
2301.70  29.877  23.828
2302.20  29.877  23.828
2302.70  29.877  23.828
2303.20  29.877  23.828
2303.70  29.877  23.828
2304.20  29.877  23.859
2304.70  29.877  23.828
2305.20  29.877  23.828
2305.70  29.877  23.859
2306.20  29.768  23.828
2306.70  29.768  23.828
2307.20  29.768  23.859
2307.70  29.877  23.828
2308.20  29.768  23.797
2308.70  29.985  23.828
2309.20  29.877  23.828
2309.70  29.877  23.828
2310.20  29.768  23.828
2310.70  29.877  23.828
2311.20  29.877  23.859
2311.70  29.985  23.828
2312.20  29.768  23.828
2312.70  29.877  23.828
2313.20  29.877  23.828
2313.70  29.768  23.797
2314.20  29.877  23.828
2314.70  29.768  23.828
2315.20  29.877  23.828
2315.70  29.877  23.828
2316.20  29.985  23.828
2316.70  29.877  23.797
2317.20  29.768  23.828
2317.70  29.768  23.828
2318.20  29.768  23.828
2318.70  29.768  23.828
2319.20  29.877  23.797
2319.70  29.985  23.828
2320.20  29.877  23.859
2320.70  29.877  23.828
2321.20  29.877  23.859
2321.71  29.768  23.828
2322.21  29.877  23.828
2322.71  29.877  23.828
2323.21  29.985  23.859
2323.71  29.768  23.859
2324.21  29.768  23.797
2324.71  29.877  23.859
2325.21  29.877  23.828
2325.71  29.768  23.828
2326.21  29.877  23.828
2326.71  29.768  23.828
2327.21  29.877  23.828
2327.71  29.768  23.797
2328.21  29.877  23.828
2328.71  29.877  23.828
2329.21  29.877  23.828
2329.71  29.877  23.828
2330.21  29.768  23.828
2330.71  29.768  23.859
2331.21  29.877  23.828
2331.71  29.768  23.797
2332.21  29.985  23.828
2332.71  29.877  23.859
2333.21  29.877  23.859
2333.71  29.768  23.828
2334.21  29.877  23.797
2334.71  29.877  23.828
2335.21  29.877  23.828
2335.71  29.877  23.828
2336.21  29.877  23.797
2336.71  29.877  23.797
2337.21  29.768  23.828
2337.71  29.877  23.797
2338.21  29.877  23.828
2338.71  29.877  23.828
2339.21  29.877  23.828
2339.71  29.768  23.828
2340.21  29.985  23.828
2340.71  29.768  23.828
2341.21  29.877  23.828
2341.71  29.877  23.859
2342.21  29.877  23.859
2342.71  29.877  23.828
2343.21  29.768  23.797
2343.71  29.877  23.828
2344.21  29.768  23.828
2344.71  29.877  23.859
2345.21  29.768  23.828
2345.71  29.768  23.828
2346.21  29.660  23.889
2346.71  29.985  23.889
2347.21  29.768  23.859
2347.71  29.877  23.828
2348.21  29.768  23.859
2348.71  29.985  23.859
2349.21  29.985  23.828
2349.71  29.877  23.828
2350.21  29.985  23.828
2350.71  29.877  23.828
2351.21  29.768  23.859
2351.71  29.877  23.828
2352.21  29.985  23.828
2352.71  29.877  23.828
2353.21  29.877  23.859
2353.71  29.877  23.828
2354.21  29.877  23.797
2354.71  29.985  23.828
2355.21  29.985  23.859
2355.71  29.877  23.828
2356.21  29.877  23.859
2356.71  29.877  23.828
2357.21  29.985  23.828
2357.71  29.877  23.828
2358.21  29.877  23.828
2358.71  29.877  23.859
2359.21  29.877  23.828
2359.71  29.877  23.859
2360.21  29.877  23.828
2360.71  29.877  23.828
2361.21  29.877  23.859
2361.71  29.985  23.859
2362.21  29.877  23.828
2362.71  29.768  23.766
2363.21  29.877  23.859
2363.71  29.985  23.828
2364.21  29.877  23.828
2364.71  29.985  23.828
2365.21  29.985  23.797
2365.71  29.877  23.828
2366.21  29.877  23.828
2366.71  30.101  23.797
2367.21  29.877  23.859
2367.71  29.877  23.828
2368.21  29.768  23.828
2368.71  29.877  23.797
2369.21  29.877  23.828
2369.71  29.877  23.859
2370.21  29.877  23.859
2370.71  29.877  23.828
2371.21  29.877  23.828
2371.71  29.768  23.828
2372.21  29.877  23.828
2372.71  29.985  23.828
2373.21  29.985  23.828
2373.71  30.217  23.828
2374.21  29.877  23.859
2374.71  29.877  23.859
2375.21  29.877  23.828
2375.71  29.877  23.797
2376.21  29.877  23.859
2376.71  29.877  23.828
2377.21  30.101  23.828
2377.71  29.877  23.828
2378.21  29.877  23.828
2378.71  29.877  23.859
2379.21  29.877  23.828
2379.71  29.985  23.859
2380.21  29.877  23.859
2380.71  29.768  23.828
2381.21  29.877  23.859
2381.71  29.985  23.828
2382.21  29.877  23.859
2382.71  29.877  23.859
2383.21  29.877  23.828
2383.71  29.877  23.828
2384.21  29.877  23.828
2384.71  30.101  23.859
2385.21  29.985  23.859
2385.71  29.877  23.828
2386.21  29.877  23.828
2386.71  29.877  23.828
2387.21  29.877  23.797
2387.71  29.877  23.859
2388.21  29.985  23.889
2388.71  29.768  23.828
2389.21  30.101  23.859
2389.71  29.877  23.859
2390.21  29.877  23.828
2390.71  29.768  23.797
2391.21  29.877  23.828
2391.71  29.985  23.859
2392.21  29.877  23.889
2392.71  29.877  23.859
2393.21  30.101  23.859
2393.71  29.985  23.859
2394.21  29.985  23.828
2394.71  29.877  23.828
2395.21  29.985  23.859
2395.71  29.877  23.859
2396.21  29.877  23.828
2396.71  29.985  23.859
2397.21  29.877  23.889
2397.71  29.877  23.859
2398.21  29.768  23.828
2398.71  30.101  23.828
2399.21  29.985  23.797
2399.71  29.768  23.859
2400.21  29.985  23.859
2400.71  29.985  23.828
2401.21  29.877  23.859
2401.71  29.877  23.828
2402.21  29.877  23.828
2402.71  29.877  23.828
2403.21  29.877  23.859
2403.71  29.985  23.859
2404.21  29.985  23.828
2404.71  29.877  23.859
2405.21  29.985  23.859
2405.71  29.985  23.859
2406.21  29.985  23.859
2406.71  29.877  23.828
2407.21  29.985  23.828
2407.71  29.877  23.828
2408.21  29.985  23.828
2408.71  29.877  23.859
2409.21  29.877  23.859
2409.71  29.768  23.828
2410.21  29.877  23.828
2410.71  29.985  23.859
2411.21  29.877  23.859
2411.71  29.877  23.859
2412.21  29.985  23.859
2412.71  29.877  23.828
2413.21  29.768  23.828
2413.71  29.985  23.828
2414.21  29.985  23.828
2414.71  29.985  23.828
2415.21  29.877  23.859
2415.71  29.985  23.859
2416.21  29.985  23.828
2416.71  29.768  23.889
2417.21  29.877  23.859
2417.71  29.985  23.828
2418.21  29.877  23.859
2418.71  29.877  23.859
2419.21  29.768  23.859
2419.71  29.877  23.828
2420.21  29.877  23.828
2420.71  29.985  23.859
2421.21  29.877  23.828
2421.71  29.985  23.859
2422.21  29.877  23.828
2422.71  29.985  23.859
2423.21  29.768  23.828
2423.72  29.985  23.828
2424.22  29.985  23.859
2424.72  29.877  23.828
2425.22  29.985  23.859
2425.72  29.985  23.828
2426.22  29.877  23.797
2426.72  29.877  23.828
2427.22  29.985  23.859
2427.72  29.985  23.828
2428.22  29.877  23.859
2428.72  29.877  23.859
2429.22  29.985  23.828
2429.72  29.877  23.828
2430.22  29.985  23.797
2430.72  29.877  23.828
2431.22  29.768  23.859
2431.72  29.985  23.859
2432.22  29.985  23.828
2432.72  29.877  23.828
2433.22  29.985  23.828
2433.72  29.985  23.797
2434.22  29.877  23.859
2434.72  29.985  23.859
2435.22  29.877  23.828
2435.72  29.985  23.828
2436.22  29.877  23.859
2436.72  29.985  23.859
2437.22  29.985  23.859
2437.72  29.985  23.828
2438.22  29.985  23.859
2438.72  29.985  23.859
2439.22  29.985  23.859
2439.72  29.877  23.859
2440.22  29.985  23.859
2440.72  29.985  23.859
2441.22  29.877  23.828
2441.72  29.985  23.828
2442.22  30.101  23.828
2442.72  29.877  23.828
2443.22  29.985  23.859
2443.72  29.985  23.859
2444.22  29.985  23.889
2444.72  29.985  23.828
2445.22  29.877  23.797
2445.72  29.985  23.859
2446.22  29.985  23.859
2446.72  29.985  23.828
2447.22  29.985  23.859
2447.72  30.101  23.828
2448.22  29.985  23.828
2448.72  29.877  23.828
2449.22  29.877  23.889
2449.72  29.985  23.889
2450.22  29.985  23.859
2450.72  29.985  23.859
2451.22  30.101  23.828
2451.72  29.985  23.859
2452.22  29.877  23.859
2452.72  29.985  23.828
2453.22  29.877  23.859
2453.72  29.877  23.859
2454.22  29.985  23.828
2454.72  29.877  23.828
2455.22  29.877  23.828
2455.72  30.101  23.859
2456.22  29.985  23.859
2456.72  30.217  23.828
2457.22  29.985  23.828
2457.72  29.985  23.828
2458.22  29.768  23.828
2458.72  29.985  23.859
2459.22  29.877  23.859
2459.72  29.877  23.859
2460.22  29.985  23.828
2460.72  29.877  23.828
2461.22  29.985  23.859
2461.72  29.985  23.859
2462.22  29.985  23.859
2462.72  29.768  23.859
2463.22  29.985  23.828
2463.72  30.101  23.859
2464.22  29.985  23.828
2464.72  29.985  23.797
2465.22  29.985  23.828
2465.72  29.985  23.797
2466.22  30.101  23.828
2466.72  29.768  23.828
2467.22  29.985  23.859
2467.72  29.877  23.859
2468.22  29.985  23.828
2468.72  29.985  23.859
2469.22  29.985  23.828
2469.72  29.877  23.859
2470.22  29.985  23.859
2470.72  29.877  23.828
2471.22  29.985  23.859
2471.72  29.877  23.859
2472.22  29.985  23.859
2472.72  29.985  23.859
2473.22  30.101  23.797
2473.72  29.985  23.859
2474.22  29.985  23.859
2474.72  29.877  23.859
2475.22  30.101  23.859
2475.72  29.877  23.859
2476.22  29.985  23.859
2476.72  29.985  23.859
2477.22  29.985  23.828
2477.72  29.985  23.859
2478.22  29.877  23.859
2478.72  30.101  23.859
2479.22  29.985  23.859
2479.72  30.101  23.828
2480.22  29.877  23.828
2480.72  29.985  23.859
2481.22  29.985  23.859
2481.72  29.985  23.859
2482.22  29.877  23.859
2482.72  29.985  23.828
2483.22  30.217  23.859
2483.72  29.985  23.828
2484.22  29.985  23.889
2484.72  29.877  23.859
2485.22  29.877  23.920
2485.72  29.877  23.859
2486.22  29.985  23.828
2486.72  29.985  23.828
2487.22  30.101  23.828
2487.72  29.985  23.859
2488.22  29.985  23.889
2488.72  29.985  23.859
2489.22  29.985  23.889
2489.72  30.101  23.859
2490.22  29.985  23.859
2490.72  30.101  23.828
2491.22  29.985  23.828
2491.72  29.985  23.889
2492.22  29.985  23.828
2492.72  30.101  23.859
2493.22  29.877  23.859
2493.72  29.985  23.889
2494.22  29.985  23.889
2494.72  29.985  23.889
2495.22  30.101  23.889
2495.72  29.985  23.828
2496.22  29.985  23.828
2496.72  29.985  23.859
2497.22  29.877  23.859
2497.72  30.217  23.859
2498.22  29.985  23.889
2498.72  29.985  23.889
2499.22  29.985  23.859
2499.72  29.985  23.828
2500.22  29.985  23.859
2500.72  30.101  23.889
2501.22  29.985  23.889
2501.72  30.101  23.859
