   2.00  13.694  23.212
   2.50  17.063  23.304
   3.00  17.037  23.212
   3.50  17.037  23.273
   4.00  17.037  23.242
   4.50  16.984  23.242
   5.00  16.984  23.242
   5.50  16.958  23.242
   6.00  16.984  23.212
   6.50  16.932  23.242
   7.00  16.932  23.242
   7.50  16.958  23.242
   8.00  16.984  23.273
   8.50  23.304  23.212
   9.00  23.330  23.242
   9.50  23.330  23.242
  10.00  23.304  23.242
  10.50  23.304  23.242
  11.00  23.304  23.212
  11.50  23.330  23.212
  12.00  23.330  23.242
  12.50  23.330  23.212
  13.00  23.330  23.181
  13.50  23.278  23.242
  14.00  23.330  23.212
  14.50  23.304  23.212
  15.00  23.304  23.212
  15.50  23.304  23.242
  16.00  23.330  23.242
  16.50  23.330  23.212
  17.00  23.304  23.212
  17.50  23.278  23.212
  18.00  23.304  23.212
  18.50  23.278  23.181
  19.00  23.304  23.242
  19.50  23.330  23.212
  20.00  23.356  23.212
  20.50  23.356  23.212
  21.00  23.382  23.242
  21.50  23.408  23.212
  22.00  23.408  23.212
  22.50  23.434  23.212
  23.00  23.434  23.212
  23.50  23.461  23.212
  24.00  23.487  23.242
  24.50  23.461  23.242
  25.00  23.461  23.242
  25.50  23.461  23.242
  26.00  23.487  23.242
  26.50  23.539  23.212
  27.00  23.539  23.273
  27.50  23.565  23.242
  28.00  23.539  23.212
  28.50  23.565  23.273
  29.00  23.539  23.273
  29.50  23.565  23.212
  30.00  23.591  23.242
  30.50  23.591  23.242
  31.00  23.617  23.242
  31.50  23.617  23.242
  32.00  23.643  23.212
  32.50  23.643  23.212
  33.00  23.670  23.242
  33.50  23.617  23.242
  34.00  23.670  23.242
  34.50  23.696  23.273
  35.00  23.722  23.212
  35.50  23.722  23.242
  36.00  23.748  23.273
  36.50  23.722  23.273
  37.00  23.748  23.242
  37.50  23.774  23.242
  38.00  23.774  23.242
  38.50  23.800  23.273
  39.00  23.774  23.273
  39.50  23.800  23.242
  40.00  23.800  23.212
  40.50  23.800  23.242
  41.00  23.826  23.242
  41.50  23.878  23.212
  42.00  23.852  23.242
  42.50  23.852  23.242
  43.00  23.878  23.273
  43.50  23.878  23.242
  44.00  23.905  23.242
  44.50  23.878  23.273
  45.00  23.905  23.212
  45.50  23.905  23.242
  46.00  23.931  23.242
  46.50  23.957  23.242
  47.00  23.957  23.242
  47.51  23.983  23.242
  48.01  23.983  23.181
  48.51  23.983  23.212
  49.01  24.035  23.335
  49.51  23.983  23.212
  50.01  24.009  23.242
  50.51  24.035  23.273
  51.01  24.061  23.212
  51.51  24.035  23.273
  52.01  24.035  23.242
  52.51  24.061  23.242
  53.01  24.140  23.242
  53.51  24.087  23.242
  54.01  24.140  23.242
  54.51  24.140  23.242
  55.01  24.140  23.273
  55.51  24.113  23.242
  56.01  24.113  23.242
  56.51  24.140  23.273
  57.01  24.140  23.242
  57.51  24.166  23.273
  58.01  24.166  23.242
  58.51  24.192  23.273
  59.01  24.192  23.242
  59.51  24.192  23.242
  60.01  24.218  23.242
  60.51  24.192  23.212
  61.01  24.166  23.273
  61.51  24.244  23.212
  62.01  24.218  23.212
  62.51  24.270  23.242
  63.01  24.244  23.212
  63.51  24.270  23.212
  64.01  24.296  23.242
  64.51  24.296  23.212
  65.01  24.270  23.242
  65.51  24.296  23.242
  66.01  24.296  23.212
  66.51  24.296  23.273
  67.01  24.296  23.212
  67.51  24.348  23.242
  68.01  24.348  23.273
  68.51  24.375  23.273
  69.01  24.375  23.242
  69.51  24.375  23.242
  70.01  24.375  23.212
  70.51  24.375  23.212
  71.01  24.427  23.212
  71.51  24.427  23.273
  72.01  24.427  23.212
  72.51  24.427  23.273
  73.01  24.453  23.242
  73.51  24.427  23.242
  74.01  24.453  23.242
  74.51  24.453  23.181
  75.01  24.453  23.242
  75.51  24.453  23.212
  76.01  24.479  23.273
  76.51  24.453  23.242
  77.01  24.505  23.212
  77.51  24.479  23.242
  78.01  24.505  23.212
  78.51  24.505  23.212
  79.01  24.505  23.242
  79.51  24.505  23.242
  80.01  24.531  23.242
  80.51  24.557  23.242
  81.01  24.583  23.242
  81.51  24.505  23.212
  82.01  24.557  23.212
  82.51  24.583  23.242
  83.01  24.557  23.242
  83.51  24.557  23.212
  84.01  24.557  23.212
  84.51  24.583  23.242
  85.01  24.610  23.212
  85.51  24.583  23.212
  86.01  24.610  23.242
  86.51  24.583  23.212
  87.01  24.583  23.150
  87.51  24.636  23.242
  88.01  24.636  23.242
  88.51  24.636  23.242
  89.01  24.636  23.242
  89.51  24.662  23.242
  90.01  24.662  23.242
  90.51  24.714  23.212
  91.01  24.714  23.242
  91.51  24.662  23.212
  92.01  24.714  23.242
  92.51  24.688  23.212
  93.01  24.688  23.242
  93.51  24.714  23.273
  94.01  24.740  23.242
  94.51  24.740  23.212
  95.01  24.740  23.212
  95.51  24.740  23.242
  96.01  24.740  23.242
  96.51  24.740  23.242
  97.01  24.740  23.242
  97.51  24.740  23.212
  98.01  24.766  23.212
  98.51  24.792  23.212
  99.01  24.792  23.242
  99.51  24.792  23.212
 100.01  24.819  23.242
 100.51  24.819  23.242
 101.01  24.819  23.242
 101.51  24.845  23.242
 102.01  24.845  23.242
 102.51  24.819  23.242
 103.01  24.845  23.242
 103.51  24.819  23.242
 104.01  24.871  23.212
 104.51  24.845  23.242
 105.01  24.845  23.242
 105.51  24.871  23.212
 106.01  24.871  23.273
 106.51  24.871  23.242
 107.01  24.897  23.181
 107.51  24.897  23.242
 108.01  24.923  23.242
 108.51  24.897  23.273
 109.01  24.923  23.242
 109.51  24.923  23.335
 110.01  24.923  23.242
 110.51  24.923  23.212
 111.01  24.923  23.242
 111.51  24.949  23.242
 112.01  24.923  23.212
 112.51  24.949  23.242
 113.01  24.897  23.242
 113.51  24.975  23.242
 114.01  24.975  23.242
 114.51  25.005  23.212
 115.01  25.005  23.273
 115.51  25.005  23.273
 116.01  24.975  23.242
 116.51  24.975  23.273
 117.01  25.005  23.212
 117.51  25.005  23.212
 118.01  25.005  23.242
 118.51  25.005  23.242
 119.01  25.005  23.212
 119.51  25.330  23.242
 120.01  25.222  23.212
 120.51  25.114  23.242
 121.01  25.114  23.242
 121.51  25.114  23.242
 122.01  25.222  23.212
 122.51  25.330  23.212
 123.01  25.222  23.212
 123.51  25.330  23.273
 124.01  25.547  23.242
 124.51  25.330  23.242
 125.01  25.438  23.242
 125.51  25.438  23.242
 126.01  25.330  23.212
 126.51  25.438  23.212
 127.01  25.438  23.242
 127.51  25.438  23.242
 128.01  25.438  23.242
 128.51  25.547  23.212
 129.01  25.547  23.273
 129.51  25.438  23.242
 130.01  25.547  23.242
 130.51  25.547  23.212
 131.01  25.655  23.273
 131.51  25.655  23.273
 132.01  25.655  23.273
 132.51  25.655  23.242
 133.01  25.655  23.212
 133.51  25.763  23.242
 134.01  25.763  23.242
 134.51  25.655  23.242
 135.01  25.871  23.304
 135.51  25.763  23.242
 136.01  25.763  23.242
 136.51  25.871  23.242
 137.01  25.763  23.242
 137.51  25.871  23.181
 138.01  25.871  23.212
 138.51  25.871  23.242
 139.01  25.871  23.212
 139.51  25.871  23.212
 140.01  26.088  23.212
 140.51  25.980  23.212
 141.01  25.980  23.242
 141.51  26.088  23.242
 142.01  26.088  23.242
 142.51  26.196  23.242
 143.01  26.088  23.242
 143.51  26.088  23.273
 144.01  26.088  23.273
 144.51  26.196  23.242
 145.01  26.196  23.242
 145.51  26.304  23.212
 146.01  26.196  23.242
 146.51  26.196  23.273
 147.01  26.304  23.212
 147.51  26.196  23.212
 148.01  26.413  23.273
 148.51  26.304  23.242
 149.01  26.304  23.242
 149.51  26.304  23.242
 150.01  26.413  23.273
 150.51  26.196  23.242
 151.01  26.413  23.212
 151.51  26.521  23.242
 152.01  26.413  23.273
 152.51  26.413  23.304
 153.01  26.521  23.181
 153.51  26.413  23.242
 154.01  26.629  23.212
 154.51  26.521  23.242
 155.01  26.521  23.242
 155.51  26.521  23.242
 156.01  26.737  23.242
 156.51  26.629  23.273
 157.01  26.629  23.242
 157.51  26.737  23.181
 158.01  26.737  23.212
 158.51  26.629  23.242
 159.01  26.737  23.212
 159.51  26.737  23.212
 160.01  26.737  23.273
 160.51  26.737  23.242
 161.01  26.846  23.242
 161.51  26.954  23.242
 162.01  26.846  23.242
 162.51  26.737  23.273
 163.01  26.846  23.242
 163.51  26.846  23.242
 164.01  26.846  23.273
 164.51  26.846  23.242
 165.01  26.954  23.242
 165.51  26.737  23.242
 166.01  26.954  23.242
 166.51  27.062  23.273
 167.01  26.954  23.242
 167.51  26.954  23.212
 168.01  26.954  23.242
 168.51  27.062  23.273
 169.01  27.062  23.273
 169.51  27.062  23.242
 170.01  27.062  23.273
 170.51  27.170  23.242
 171.01  27.170  23.181
 171.52  27.062  23.181
 172.02  27.170  23.212
 172.52  27.170  23.273
 173.02  27.170  23.242
 173.52  27.279  23.242
 174.02  27.170  23.273
 174.52  27.170  23.242
 175.02  27.279  23.242
 175.52  27.387  23.273
 176.02  27.279  23.242
 176.52  27.279  23.242
 177.02  27.387  23.242
 177.52  27.387  23.242
 178.02  27.279  23.242
 178.52  27.279  23.242
 179.02  27.279  23.212
 179.52  27.387  23.304
 180.02  27.387  23.273
 180.52  27.495  23.273
 181.02  27.495  23.212
 181.52  27.495  23.242
 182.02  27.387  23.242
 182.52  27.603  23.242
 183.02  27.495  23.273
 183.52  27.495  23.242
 184.02  27.603  23.242
 184.52  27.603  23.212
 185.02  27.603  23.212
 185.52  27.603  23.212
 186.02  27.712  23.242
 186.52  27.603  23.242
 187.02  27.603  23.242
 187.52  27.712  23.242
 188.02  27.820  23.242
 188.52  27.712  23.273
 189.02  27.820  23.212
 189.52  27.820  23.212
 190.02  27.820  23.273
 190.52  27.712  23.273
 191.02  27.928  23.242
 191.52  27.820  23.273
 192.02  27.820  23.273
 192.52  27.820  23.273
 193.02  27.928  23.242
 193.52  27.928  23.242
 194.02  27.928  23.273
 194.52  27.820  23.273
 195.02  28.036  23.242
 195.52  28.036  23.212
 196.02  28.145  23.242
 196.52  27.928  23.273
 197.02  28.036  23.242
 197.52  28.036  23.304
 198.02  28.253  23.242
 198.52  28.036  23.242
 199.02  28.145  23.273
 199.52  28.036  23.273
 200.02  27.928  23.242
 200.52  28.036  23.212
 201.02  28.145  23.242
 201.52  28.145  23.242
 202.02  28.253  23.242
 202.52  28.145  23.304
 203.02  28.145  23.242
 203.52  28.145  23.273
 204.02  28.145  23.212
 204.52  28.253  23.273
 205.02  28.145  23.242
 205.52  28.036  23.212
 206.02  28.361  23.212
 206.52  28.253  23.273
 207.02  28.145  23.242
 207.52  28.361  23.273
 208.02  28.469  23.242
 208.52  28.469  23.242
 209.02  28.145  23.273
 209.52  28.469  23.212
 210.02  28.145  23.242
 210.52  28.361  23.335
 211.02  28.361  23.273
 211.52  28.469  23.242
 212.02  28.361  23.242
 212.52  28.469  23.212
 213.02  28.469  23.242
 213.52  28.469  23.242
 214.02  28.469  23.273
 214.52  28.469  23.242
 215.02  28.469  23.242
 215.52  28.578  23.242
 216.02  28.578  23.242
 216.52  28.361  23.273
 217.02  28.469  23.273
 217.52  28.469  23.242
 218.02  28.794  23.242
 218.52  28.686  23.273
 219.02  28.578  23.242
 219.52  28.686  23.242
 220.02  28.686  23.242
 220.52  28.686  23.242
 221.02  28.902  23.273
 221.52  28.686  23.304
 222.02  28.686  23.212
 222.52  28.469  23.273
 223.02  28.794  23.242
 223.52  28.794  23.242
 224.02  28.902  23.273
 224.52  28.902  23.212
 225.02  28.794  23.242
 225.52  28.794  23.242
 226.02  28.902  23.212
 226.52  28.794  23.242
 227.02  28.794  23.273
 227.52  28.902  23.366
 228.02  28.794  23.273
 228.52  28.902  23.242
 229.02  28.902  23.273
 229.52  29.011  23.242
 230.02  29.011  23.242
 230.52  29.011  23.273
 231.02  29.227  23.181
 231.52  29.119  23.273
 232.02  29.011  23.273
 232.52  29.011  23.242
 233.02  29.119  23.273
 233.52  29.011  23.273
 234.02  29.011  23.273
 234.52  29.227  23.273
 235.02  29.227  23.242
 235.52  29.119  23.242
 236.02  29.119  23.242
 236.52  29.119  23.242
 237.02  29.227  23.304
 237.52  29.119  23.273
 238.02  29.227  23.273
 238.52  29.227  23.242
 239.02  29.335  23.242
 239.52  29.227  23.273
 240.02  29.335  23.212
 240.52  29.335  23.273
 241.02  29.227  23.242
 241.52  29.335  23.242
 242.02  29.227  23.273
 242.52  29.227  23.242
 243.02  29.335  23.242
 243.52  29.335  23.242
 244.02  29.444  23.242
 244.52  29.335  23.242
 245.02  29.335  23.242
 245.52  29.335  23.212
 246.02  29.335  23.242
 246.52  29.444  23.242
 247.02  29.444  23.242
 247.52  29.552  23.242
 248.02  29.335  23.242
 248.52  29.444  23.242
 249.02  29.552  23.242
 249.52  29.552  23.242
 250.02  29.444  23.273
 250.52  29.335  23.242
 251.02  29.552  23.242
 251.52  29.444  23.242
 252.02  29.552  23.273
 252.52  29.552  23.273
 253.02  29.552  23.273
 253.52  29.660  23.273
 254.02  29.552  23.273
 254.52  29.660  23.242
 255.02  29.444  23.273
 255.52  29.660  23.273
 256.02  29.552  23.242
 256.52  29.552  23.242
 257.02  29.768  23.242
 257.52  29.877  23.273
 258.02  29.660  23.273
 258.52  29.660  23.242
 259.02  29.768  23.273
 259.52  29.552  23.242
 260.02  29.768  23.273
 260.52  29.768  23.273
 261.02  29.768  23.242
 261.52  29.768  23.273
 262.02  29.660  23.273
 262.52  29.768  23.242
 263.02  29.877  23.273
 263.52  29.768  23.212
 264.02  29.768  23.273
 264.52  29.985  23.304
 265.02  29.985  23.273
 265.52  29.877  23.273
 266.02  29.877  23.273
 266.52  29.877  23.273
 267.02  29.877  23.242
 267.52  29.985  23.242
 268.02  30.101  23.242
 268.52  29.985  23.242
 269.02  29.985  23.304
 269.52  30.101  23.273
 270.02  30.101  23.242
 270.52  30.101  23.273
 271.02  30.101  23.242
 271.52  29.985  23.273
 272.02  30.101  23.212
 272.52  30.101  23.212
 273.02  30.101  23.242
 273.52  29.985  23.242
 274.02  30.101  23.273
 274.52  29.985  23.212
 275.02  30.217  23.242
 275.52  30.101  23.242
 276.02  30.101  23.273
 276.52  30.217  23.273
 277.02  30.217  23.273
 277.52  29.985  23.273
 278.02  30.101  23.273
 278.52  30.217  23.273
 279.02  30.217  23.242
 279.52  30.217  23.273
 280.02  30.101  23.304
 280.52  30.217  23.273
 281.02  30.334  23.242
 281.52  30.568  23.273
 282.02  30.217  23.273
 282.52  30.334  23.273
 283.02  30.334  23.242
 283.52  30.451  23.273
 284.02  30.334  23.242
 284.52  30.334  23.273
 285.03  30.451  23.273
 285.53  30.334  23.273
 286.03  30.334  23.273
 286.53  30.217  23.273
 287.03  30.451  23.242
 287.53  30.451  23.273
 288.03  30.451  23.273
 288.53  30.451  23.273
 289.03  30.334  23.242
 289.53  30.451  23.242
 290.03  30.568  23.273
 290.53  30.334  23.242
 291.03  30.568  23.212
 291.53  30.451  23.273
 292.03  30.568  23.242
 292.53  30.685  23.273
 293.03  30.568  23.273
 293.53  30.451  23.304
 294.03  30.568  23.304
 294.53  30.685  23.273
 295.03  30.685  23.304
 295.53  30.685  23.304
 296.03  30.802  23.273
 296.53  30.685  23.273
 297.03  30.685  23.273
 297.53  30.568  23.242
 298.03  30.685  23.273
 298.53  30.685  23.273
 299.03  30.802  23.273
 299.53  30.685  23.273
 300.03  30.802  23.242
 300.53  30.802  23.273
 301.03  30.802  23.273
 301.53  30.685  23.242
 302.03  30.919  23.273
 302.53  30.685  23.273
 303.03  30.685  23.242
 303.53  30.802  23.304
 304.03  30.802  23.273
 304.53  30.685  23.273
 305.03  30.802  23.212
 305.53  30.802  23.273
 306.03  30.802  23.273
 306.53  30.802  23.273
 307.03  30.919  23.304
 307.53  30.919  23.273
 308.03  30.919  23.273
 308.53  31.036  23.242
 309.03  30.919  23.273
 309.53  30.919  23.212
 310.03  30.919  23.304
 310.53  31.152  23.273
 311.03  31.036  23.273
 311.53  30.919  23.304
 312.03  31.036  23.304
 312.53  31.152  23.304
 313.03  31.036  23.212
 313.53  31.152  23.304
 314.03  31.036  23.273
 314.53  31.036  23.273
 315.03  31.036  23.212
 315.53  30.919  23.304
 316.03  30.919  23.273
 316.53  31.152  23.273
 317.03  31.036  23.273
 317.53  31.036  23.212
 318.03  31.152  23.366
 318.53  31.269  23.242
 319.03  31.152  23.273
 319.53  31.152  23.242
 320.03  31.269  23.335
 320.53  31.152  23.273
 321.03  31.269  23.242
 321.53  31.152  23.273
 322.03  31.269  23.273
 322.53  31.269  23.273
 323.03  31.269  23.304
 323.53  31.036  23.304
 324.03  31.386  23.273
 324.53  31.269  23.304
 325.03  31.269  23.273
 325.53  31.386  23.242
 326.03  31.503  23.304
 326.53  31.386  23.273
 327.03  31.386  23.273
 327.53  31.503  23.273
 328.03  31.036  23.273
 328.53  31.152  23.273
 329.03  31.386  23.273
 329.53  31.386  23.273
 330.03  31.503  23.304
 330.53  31.386  23.273
 331.03  31.386  23.242
 331.53  31.503  23.242
 332.03  31.386  23.273
 332.53  31.503  23.273
 333.03  31.503  23.273
 333.53  31.386  23.212
 334.03  31.620  23.273
 334.53  31.503  23.273
 335.03  31.503  23.242
 335.53  31.386  23.304
 336.03  31.503  23.273
 336.53  31.503  23.242
 337.03  31.503  23.273
 337.53  31.503  23.242
 338.03  31.620  23.242
 338.53  31.620  23.273
 339.03  31.620  23.212
 339.53  31.620  23.273
 340.03  31.620  23.273
 340.53  31.854  23.304
 341.03  31.620  23.273
 341.53  31.737  23.273
 342.03  31.620  23.212
 342.53  31.620  23.242
 343.03  31.620  23.273
 343.53  31.737  23.273
 344.03  31.854  23.181
 344.53  31.737  23.273
 345.03  31.737  23.273
 345.53  31.620  23.273
 346.03  31.854  23.304
 346.53  31.737  23.304
 347.03  31.737  23.304
 347.53  31.620  23.273
 348.03  31.737  23.304
 348.53  31.854  23.273
 349.03  31.737  23.304
 349.53  31.737  23.304
 350.03  31.854  23.273
 350.53  31.854  23.273
 351.03  31.854  23.273
 351.53  31.854  23.273
 352.03  31.971  23.304
 352.53  31.854  23.273
 353.03  31.971  23.242
 353.53  31.854  23.242
 354.03  31.971  23.273
 354.53  31.971  23.304
 355.03  31.971  23.273
 355.53  31.971  23.273
 356.03  31.971  23.304
 356.53  31.971  23.273
 357.03  32.087  23.273
 357.53  31.971  23.273
 358.03  31.854  23.304
 358.53  32.087  23.304
 359.03  31.971  23.304
 359.53  31.854  23.304
 360.03  32.204  23.304
 360.53  32.087  23.304
 361.03  31.971  23.335
 361.53  32.087  23.304
 362.03  32.087  23.273
 362.53  32.087  23.304
 363.03  31.971  23.273
 363.53  32.087  23.242
 364.03  32.087  23.273
 364.53  32.204  23.304
 365.03  32.087  23.242
 365.53  32.204  23.273
 366.03  32.204  23.273
 366.53  32.087  23.242
 367.03  32.204  23.304
 367.53  32.087  23.273
 368.03  32.204  23.242
 368.53  32.204  23.304
 369.03  32.321  23.273
 369.53  32.087  23.242
 370.03  32.321  23.304
 370.53  32.204  23.304
 371.03  32.321  23.304
 371.53  32.204  23.273
 372.03  32.321  23.273
 372.53  32.321  23.212
 373.03  32.204  23.273
 373.53  32.087  23.242
 374.03  32.321  23.273
 374.53  32.438  23.273
 375.03  32.321  23.273
 375.53  32.321  23.304
 376.03  32.321  23.273
 376.53  32.204  23.242
 377.03  32.321  23.242
 377.53  32.321  23.273
 378.03  32.321  23.304
 378.53  32.438  23.273
 379.03  32.438  23.273
 379.53  32.204  23.335
 380.03  32.438  23.304
 380.53  32.438  23.273
 381.03  32.438  23.304
 381.53  32.438  23.304
 382.03  32.321  23.273
 382.53  32.555  23.273
 383.03  32.438  23.273
 383.53  32.555  23.273
 384.03  32.555  23.273
 384.53  32.555  23.273
 385.03  32.438  23.304
 385.53  32.672  23.273
 386.03  32.555  23.304
 386.53  32.672  23.335
 387.04  32.672  23.304
 387.54  32.672  23.242
 388.04  32.555  23.304
 388.54  32.555  23.304
 389.04  32.672  23.242
 389.54  32.555  23.273
 390.04  32.555  23.304
 390.54  32.672  23.273
 391.04  32.672  23.304
 391.54  32.672  23.335
 392.04  32.672  23.273
 392.54  32.672  23.304
 393.04  32.672  23.273
 393.54  32.555  23.273
 394.04  32.906  23.304
 394.54  32.789  23.273
 395.04  32.789  23.335
 395.54  33.022  23.304
 396.04  32.672  23.273
 396.54  32.672  23.242
 397.04  32.906  23.366
 397.54  32.789  23.304
 398.04  32.789  23.242
 398.54  32.789  23.273
 399.04  32.555  23.273
 399.54  32.906  23.304
 400.04  32.789  23.304
 400.54  32.789  23.304
 401.04  32.906  23.304
 401.54  32.789  23.304
 402.04  32.906  23.304
 402.54  32.789  23.273
 403.04  33.022  23.304
 403.54  33.022  23.304
 404.04  32.789  23.304
 404.54  32.906  23.304
 405.04  32.906  23.304
 405.54  32.906  23.273
 406.04  33.022  23.273
 406.54  32.789  23.304
 407.04  32.789  23.273
 407.54  32.789  23.304
 408.04  32.906  23.273
 408.54  32.906  23.273
 409.04  32.906  23.304
 409.54  33.022  23.242
 410.04  32.906  23.304
 410.54  32.906  23.304
 411.04  32.906  23.273
 411.54  32.789  23.273
 412.04  33.139  23.304
 412.54  33.022  23.304
 413.04  33.139  23.304
 413.54  33.139  23.304
 414.04  33.139  23.304
 414.54  33.139  23.304
 415.04  33.022  23.273
 415.54  33.022  23.304
 416.04  33.139  23.304
 416.54  33.022  23.273
 417.04  33.022  23.304
 417.54  33.139  23.304
 418.04  33.139  23.304
 418.54  33.022  23.273
 419.04  33.139  23.304
 419.54  33.022  23.304
 420.04  33.139  23.304
 420.54  33.256  23.335
 421.04  33.139  23.304
 421.54  33.139  23.304
 422.04  33.139  23.273
 422.54  33.139  23.304
 423.04  33.022  23.273
 423.54  33.139  23.304
 424.04  33.139  23.304
 424.54  33.373  23.273
 425.04  33.256  23.304
 425.54  33.256  23.304
 426.04  33.256  23.304
 426.54  33.256  23.304
 427.04  33.256  23.335
 427.54  33.373  23.304
 428.04  33.256  23.304
 428.54  33.373  23.273
 429.04  33.256  23.304
 429.54  33.256  23.242
 430.04  33.373  23.304
 430.54  33.256  23.304
 431.04  33.256  23.304
 431.54  33.490  23.304
 432.04  33.490  23.304
 432.54  33.373  23.304
 433.04  33.256  23.304
 433.54  33.373  23.304
 434.04  33.373  23.304
 434.54  33.373  23.304
 435.04  33.256  23.273
 435.54  33.373  23.273
 436.04  33.490  23.304
 436.54  33.373  23.304
 437.04  33.373  23.304
 437.54  33.490  23.304
 438.04  33.373  23.304
 438.54  33.490  23.335
 439.04  33.256  23.273
 439.54  33.490  23.304
 440.04  33.373  23.304
 440.54  33.607  23.273
 441.04  33.490  23.273
 441.54  33.490  23.304
 442.04  33.490  23.304
 442.54  33.490  23.273
 443.04  33.607  23.304
 443.54  33.490  23.304
 444.04  33.490  23.335
 444.54  33.607  23.366
 445.04  33.607  23.273
 445.54  33.607  23.304
 446.04  33.607  23.304
 446.54  33.607  23.304
 447.04  33.607  23.335
 447.54  33.607  23.304
 448.04  33.607  23.304
 448.54  33.724  23.366
 449.04  33.607  23.304
 449.54  33.724  23.304
 450.04  33.607  23.304
 450.54  33.607  23.273
 451.04  33.607  23.304
 451.54  33.607  23.304
 452.04  33.607  23.304
 452.54  33.607  23.304
 453.04  33.607  23.273
 453.54  33.724  23.304
 454.04  33.607  23.304
 454.54  33.724  23.304
 455.04  33.724  23.304
 455.54  33.841  23.273
 456.04  33.841  23.335
 456.54  33.724  23.304
 457.04  33.724  23.304
 457.54  33.724  23.304
 458.04  33.607  23.273
 458.54  33.841  23.304
 459.04  33.841  23.304
 459.54  33.724  23.304
 460.04  33.724  23.304
 460.54  33.841  23.304
 461.04  33.841  23.273
 461.54  33.724  23.304
 462.04  33.724  23.242
 462.54  34.074  23.304
 463.04  33.841  23.304
 463.54  33.841  23.304
 464.04  33.841  23.273
 464.54  33.841  23.304
 465.04  33.957  23.304
 465.54  33.957  23.273
 466.04  33.841  23.304
 466.54  33.957  23.304
 467.04  34.074  23.304
 467.54  33.957  23.304
 468.04  33.841  23.242
 468.54  33.957  23.304
 469.04  34.074  23.304
 469.54  34.074  23.335
 470.04  33.957  23.335
 470.54  33.957  23.335
 471.04  33.957  23.304
 471.54  34.074  23.304
 472.04  33.957  23.273
 472.54  33.957  23.335
 473.04  34.074  23.242
 473.54  33.957  23.335
 474.04  33.957  23.242
 474.54  34.191  23.335
 475.04  34.074  23.304
 475.54  34.074  23.273
 476.04  34.074  23.335
 476.54  34.074  23.366
 477.04  34.074  23.304
 477.54  34.074  23.335
 478.04  34.191  23.304
 478.54  34.074  23.335
 479.04  34.308  23.304
 479.54  34.074  23.366
 480.04  34.191  23.273
 480.54  34.191  23.335
 481.04  34.191  23.335
 481.54  34.191  23.273
 482.04  34.191  23.335
 482.54  34.191  23.335
 483.04  34.074  23.273
 483.54  34.191  23.335
 484.04  34.074  23.304
 484.54  34.074  23.304
 485.04  34.191  23.304
 485.54  34.191  23.242
 486.04  34.308  23.273
 486.54  34.308  23.242
 487.04  34.308  23.335
 487.54  34.191  23.304
 488.04  34.191  23.335
 488.54  34.191  23.273
 489.04  34.308  23.304
 489.54  34.074  23.304
 490.04  34.308  23.335
 490.54  34.191  23.304
 491.04  34.308  23.304
 491.54  34.308  23.273
 492.04  34.074  23.304
 492.54  34.191  23.273
 493.04  34.425  23.273
 493.54  34.308  23.304
 494.04  34.425  23.304
 494.54  34.308  23.304
 495.04  34.308  23.304
 495.54  34.425  23.335
 496.04  34.425  23.304
 496.54  34.425  23.335
 497.04  34.308  23.335
 497.54  34.308  23.304
 498.04  34.542  23.304
 498.54  34.425  23.273
 499.04  34.308  23.335
 499.54  34.425  23.335
 500.04  34.425  23.304
 500.55  34.425  23.304
 501.05  34.425  23.335
 501.55  34.425  23.304
 502.05  34.308  23.366
 502.55  34.425  23.335
 503.05  34.425  23.335
 503.55  34.308  23.335
 504.05  34.542  23.304
 504.55  34.542  23.304
 505.05  34.425  23.304
 505.55  34.425  23.304
 506.05  34.542  23.335
 506.55  34.542  23.304
 507.05  34.425  23.273
 507.55  34.542  23.304
 508.05  34.659  23.273
 508.55  34.659  23.335
 509.05  34.542  23.335
 509.55  34.542  23.335
 510.05  34.542  23.304
 510.55  34.542  23.242
 511.05  34.659  23.304
 511.55  34.542  23.335
 512.05  34.542  23.304
 512.55  34.542  23.304
 513.05  34.659  23.335
 513.55  34.659  23.273
 514.05  34.659  23.335
 514.55  34.659  23.304
 515.05  34.425  23.304
 515.55  34.659  23.366
 516.05  34.542  23.304
 516.55  34.776  23.335
 517.05  34.659  23.335
 517.55  34.659  23.304
 518.05  34.542  23.273
 518.55  34.776  23.304
 519.05  34.776  23.335
 519.55  34.776  23.335
 520.05  34.776  23.304
 520.55  34.776  23.273
 521.05  34.776  23.304
 521.55  34.659  23.304
 522.05  34.776  23.366
 522.55  34.776  23.335
 523.05  34.659  23.335
 523.55  34.892  23.304
 524.05  34.659  23.335
 524.55  34.542  23.366
 525.05  34.659  23.335
 525.55  34.776  23.335
 526.05  34.659  23.335
 526.55  34.892  23.335
 527.05  34.776  23.304
 527.55  34.776  23.304
 528.05  34.776  23.335
 528.55  34.776  23.335
 529.05  35.005  23.304
 529.55  34.776  23.366
 530.05  34.776  23.335
 530.55  34.776  23.304
 531.05  34.892  23.304
 531.55  34.776  23.304
 532.05  34.892  23.304
 532.55  34.892  23.304
 533.05  35.005  23.335
 533.55  35.005  23.273
 534.05  34.776  23.304
 534.55  34.892  23.335
 535.05  34.659  23.335
 535.55  34.659  23.304
 536.05  34.892  23.304
 536.55  34.892  23.273
 537.05  35.005  23.304
 537.55  34.892  23.335
 538.05  34.892  23.304
 538.55  35.005  23.304
 539.05  34.892  23.335
 539.55  35.005  23.304
 540.05  34.892  23.304
 540.55  34.892  23.335
 541.05  35.069  23.304
 541.55  35.005  23.335
 542.05  34.892  23.366
 542.55  35.005  23.335
 543.05  35.005  23.304
 543.55  35.005  23.335
 544.05  35.005  23.304
 544.55  35.005  23.335
 545.05  35.005  23.304
 545.55  35.005  23.304
 546.05  35.005  23.335
 546.55  35.005  23.335
 547.05  35.133  23.335
 547.55  35.197  23.335
 548.05  35.005  23.273
 548.55  35.005  23.304
 549.05  35.069  23.366
 549.55  35.005  23.366
 550.05  35.069  23.335
 550.55  35.069  23.304
 551.05  35.069  23.335
 551.55  35.133  23.335
 552.05  35.005  23.335
 552.55  35.069  23.304
 553.05  35.005  23.335
 553.55  35.133  23.335
 554.05  35.069  23.335
 554.55  35.005  23.304
 555.05  35.069  23.304
 555.55  35.005  23.335
 556.05  35.069  23.366
 556.55  35.069  23.304
 557.05  35.133  23.366
 557.55  35.069  23.304
 558.05  35.133  23.396
 558.55  35.069  23.335
 559.05  35.133  23.304
 559.55  35.133  23.335
 560.05  35.133  23.335
 560.55  35.069  23.335
 561.05  35.133  23.335
 561.55  35.005  23.335
 562.05  35.133  23.335
 562.55  35.197  23.335
 563.05  35.133  23.335
 563.55  35.197  23.304
 564.05  35.133  23.366
 564.55  35.069  23.304
 565.05  35.197  23.335
 565.55  35.197  23.396
 566.05  35.197  23.366
 566.55  35.197  23.335
 567.05  35.197  23.335
 567.55  35.133  23.335
 568.05  35.197  23.335
 568.55  35.197  23.366
 569.05  35.197  23.304
 569.55  35.261  23.335
 570.05  35.261  23.304
 570.55  35.133  23.335
 571.05  35.197  23.335
 571.55  35.261  23.335
 572.05  35.133  23.304
 572.55  35.261  23.335
 573.05  35.197  23.335
 573.55  35.261  23.335
 574.05  35.261  23.366
 574.55  35.197  23.335
 575.05  35.261  23.304
 575.55  35.261  23.273
 576.05  35.261  23.427
 576.55  35.261  23.366
 577.05  35.261  23.366
 577.55  35.261  23.366
 578.05  35.261  23.335
 578.55  35.325  23.335
 579.05  35.261  23.335
 579.55  35.325  23.335
 580.05  35.325  23.335
 580.55  35.261  23.335
 581.05  35.325  23.366
 581.55  35.197  23.335
 582.05  35.389  23.335
 582.55  35.261  23.366
 583.05  35.325  23.366
 583.55  35.325  23.304
 584.05  35.261  23.396
 584.55  35.261  23.366
 585.05  35.261  23.335
 585.55  35.261  23.335
 586.05  35.261  23.335
 586.55  35.261  23.366
 587.05  35.325  23.366
 587.55  35.261  23.335
 588.05  35.325  23.335
 588.55  35.325  23.366
 589.05  35.325  23.304
 589.55  35.389  23.335
 590.05  35.325  23.335
 590.55  35.325  23.366
 591.05  35.325  23.335
 591.55  35.325  23.366
 592.05  35.389  23.366
 592.55  35.389  23.366
 593.05  35.325  23.366
 593.55  35.389  23.335
 594.05  35.325  23.304
 594.55  35.389  23.335
 595.05  35.325  23.366
 595.55  35.453  23.335
 596.05  35.389  23.335
 596.55  35.389  23.366
 597.05  35.325  23.366
 597.55  35.325  23.335
 598.05  35.389  23.335
 598.55  35.389  23.335
 599.05  35.389  23.335
 599.55  35.325  23.335
 600.05  35.325  23.366
 600.55  35.389  23.335
 601.05  35.325  23.304
 601.55  35.453  23.335
 602.05  35.453  23.335
 602.55  35.325  23.335
 603.05  35.453  23.304
 603.55  35.389  23.335
 604.05  35.389  23.335
 604.55  35.517  23.366
 605.05  35.389  23.335
 605.55  35.581  23.304
 606.05  35.453  23.335
 606.55  35.453  23.304
 607.05  35.453  23.335
 607.55  35.453  23.304
 608.05  35.389  23.335
 608.55  35.389  23.335
 609.05  35.453  23.304
 609.55  35.453  23.335
 610.05  35.453  23.335
 610.55  35.453  23.335
 611.05  35.453  23.335
 611.55  35.389  23.304
 612.05  35.453  23.304
 612.55  35.453  23.335
 613.05  35.453  23.366
 613.55  35.517  23.366
 614.05  35.517  23.273
 614.55  35.581  23.335
 615.05  35.517  23.273
 615.55  35.453  23.366
 616.05  35.453  23.366
 616.55  35.453  23.366
 617.05  35.517  23.366
 617.55  35.517  23.335
 618.05  35.517  23.335
 618.55  35.581  23.366
 619.05  35.645  23.335
 619.55  35.453  23.304
 620.05  35.453  23.366
 620.55  35.453  23.366
 621.05  35.581  23.335
 621.55  35.517  23.366
 622.05  35.517  23.335
 622.55  35.581  23.366
 623.05  35.581  23.366
 623.55  35.709  23.366
 624.05  35.581  23.335
 624.56  35.581  23.335
 625.06  35.517  23.335
 625.56  35.517  23.335
 626.06  35.517  23.366
 626.56  35.645  23.335
 627.06  35.581  23.335
 627.56  35.581  23.366
 628.06  35.581  23.335
 628.56  35.581  23.366
 629.06  35.581  23.366
 629.56  35.645  23.335
 630.06  35.581  23.335
 630.56  35.581  23.366
 631.06  35.581  23.335
 631.56  35.581  23.366
 632.06  35.581  23.396
 632.56  35.581  23.335
 633.06  35.645  23.335
 633.56  35.645  23.366
 634.06  35.645  23.366
 634.56  35.709  23.366
 635.06  35.645  23.366
 635.56  35.645  23.366
 636.06  35.581  23.335
 636.56  35.645  23.335
 637.06  35.645  23.366
 637.56  35.645  23.366
 638.06  35.645  23.366
 638.56  35.645  23.396
 639.06  35.645  23.366
 639.56  35.709  23.304
 640.06  35.645  23.335
 640.56  35.645  23.366
 641.06  35.517  23.366
 641.56  35.645  23.366
 642.06  35.645  23.366
 642.56  35.645  23.396
 643.06  35.645  23.366
 643.56  35.709  23.335
 644.06  35.709  23.396
 644.56  35.645  23.396
 645.06  35.645  23.335
 645.56  35.645  23.335
 646.06  35.709  23.335
 646.56  35.709  23.366
 647.06  35.645  23.366
 647.56  35.645  23.396
 648.06  35.645  23.335
 648.56  35.645  23.366
 649.06  35.709  23.366
 649.56  35.645  23.366
 650.06  35.709  23.366
 650.56  35.773  23.335
 651.06  35.709  23.366
 651.56  35.709  23.366
 652.06  35.645  23.366
 652.56  35.773  23.366
 653.06  35.709  23.366
 653.56  35.773  23.366
 654.06  35.837  23.366
 654.56  35.901  23.366
 655.06  35.709  23.366
 655.56  35.773  23.366
 656.06  35.837  23.366
 656.56  35.773  23.366
 657.06  35.773  23.366
 657.56  35.645  23.366
 658.06  35.709  23.396
 658.56  35.773  23.396
 659.06  35.773  23.335
 659.56  35.709  23.335
 660.06  35.773  23.366
 660.56  35.837  23.335
 661.06  35.773  23.366
 661.56  35.773  23.366
 662.06  35.773  23.366
 662.56  35.773  23.366
 663.06  35.837  23.335
 663.56  35.837  23.366
 664.06  35.773  23.366
 664.56  35.837  23.335
 665.06  35.773  23.366
 665.56  35.773  23.335
 666.06  35.773  23.335
 666.56  35.773  23.335
 667.06  35.773  23.366
 667.56  35.773  23.366
 668.06  35.837  23.335
 668.56  35.837  23.366
 669.06  35.837  23.366
 669.56  35.773  23.366
 670.06  35.901  23.366
 670.56  35.837  23.335
 671.06  35.837  23.366
 671.56  35.837  23.366
 672.06  35.901  23.366
 672.56  35.837  23.335
 673.06  35.837  23.366
 673.56  35.837  23.366
 674.06  35.837  23.396
 674.56  35.901  23.335
 675.06  35.837  23.366
 675.56  35.965  23.396
 676.06  35.901  23.396
 676.56  35.837  23.335
 677.06  35.901  23.427
 677.56  35.837  23.366
 678.06  35.773  23.366
 678.56  35.901  23.366
 679.06  35.901  23.366
 679.56  35.901  23.366
 680.06  35.901  23.366
 680.56  35.837  23.396
 681.06  35.901  23.396
 681.56  35.901  23.366
 682.06  35.901  23.366
 682.56  35.901  23.366
 683.06  35.965  23.366
 683.56  35.965  23.366
 684.06  35.965  23.335
 684.56  35.901  23.396
 685.06  35.901  23.366
 685.56  35.901  23.335
 686.06  35.901  23.396
 686.56  35.901  23.366
 687.06  35.965  23.366
 687.56  35.901  23.366
 688.06  35.965  23.396
 688.56  35.965  23.396
 689.06  35.901  23.396
 689.56  35.901  23.366
 690.06  35.901  23.396
 690.56  35.965  23.366
 691.06  35.837  23.366
 691.56  35.965  23.335
 692.06  35.965  23.366
 692.56  36.029  23.396
 693.06  36.029  23.396
 693.56  35.837  23.366
 694.06  36.029  23.366
 694.56  35.901  23.396
 695.06  35.901  23.366
 695.56  35.965  23.366
 696.06  36.029  23.304
 696.56  35.901  23.366
 697.06  36.029  23.396
 697.56  35.965  23.366
 698.06  35.965  23.335
 698.56  35.965  23.366
 699.06  35.965  23.366
 699.56  36.029  23.366
 700.06  36.029  23.427
 700.56  36.029  23.396
 701.06  36.029  23.366
 701.56  35.965  23.396
 702.06  35.965  23.396
 702.56  35.965  23.396
 703.06  35.965  23.366
 703.56  36.029  23.366
 704.06  36.029  23.396
 704.56  36.029  23.366
 705.06  35.965  23.366
 705.56  36.029  23.366
 706.06  35.965  23.366
 706.56  35.965  23.366
 707.06  36.029  23.396
 707.56  36.093  23.427
 708.06  36.029  23.366
 708.56  36.093  23.366
 709.06  36.093  23.366
 709.56  35.965  23.366
 710.06  36.029  23.396
 710.56  36.029  23.396
 711.06  36.029  23.396
 711.56  35.965  23.366
 712.06  36.029  23.335
 712.56  36.029  23.366
 713.06  36.093  23.335
 713.56  36.093  23.396
 714.06  36.093  23.396
 714.56  36.093  23.396
 715.06  36.029  23.427
 715.56  36.093  23.366
 716.06  36.029  23.366
 716.56  36.093  23.396
 717.06  36.093  23.366
 717.56  35.965  23.396
 718.06  36.029  23.396
 718.56  36.093  23.396
 719.06  36.093  23.396
 719.56  36.093  23.396
 720.06  36.093  23.366
 720.56  36.093  23.366
 721.06  36.093  23.366
 721.56  36.093  23.366
 722.06  36.157  23.335
 722.56  36.093  23.366
 723.06  36.157  23.396
 723.56  36.093  23.396
 724.06  36.093  23.396
 724.56  36.029  23.366
 725.06  36.093  23.335
 725.56  36.157  23.396
 726.06  36.157  23.427
 726.57  36.157  23.396
 727.07  36.093  23.396
 727.57  36.157  23.366
 728.07  36.157  23.396
 728.57  36.157  23.396
 729.07  36.285  23.396
 729.57  36.157  23.427
 730.07  36.157  23.427
 730.57  36.221  23.396
 731.07  36.221  23.396
 731.57  36.157  23.396
 732.07  36.221  23.366
 732.57  36.157  23.396
 733.07  36.221  23.396
 733.57  36.157  23.396
 734.07  36.221  23.396
 734.57  36.221  23.335
 735.07  36.221  23.366
 735.57  36.157  23.427
 736.07  36.157  23.396
 736.57  36.157  23.396
 737.07  36.157  23.396
 737.57  36.221  23.427
 738.07  36.221  23.396
 738.57  36.221  23.366
 739.07  36.157  23.396
 739.57  36.221  23.396
 740.07  36.221  23.427
 740.57  36.093  23.396
 741.07  36.285  23.396
 741.57  36.221  23.396
 742.07  36.285  23.396
 742.57  36.221  23.366
 743.07  36.221  23.396
 743.57  36.221  23.366
 744.07  36.221  23.396
 744.57  36.221  23.396
 745.07  36.221  23.335
 745.57  36.221  23.396
 746.07  36.221  23.366
 746.57  36.285  23.396
 747.07  36.221  23.396
 747.57  36.221  23.396
 748.07  36.221  23.366
 748.57  36.285  23.427
 749.07  36.221  23.396
 749.57  36.413  23.366
 750.07  36.285  23.427
 750.57  36.285  23.396
 751.07  36.221  23.366
 751.57  36.221  23.458
 752.07  36.285  23.427
 752.57  36.285  23.396
 753.07  36.285  23.396
 753.57  36.285  23.396
 754.07  36.285  23.396
 754.57  36.285  23.396
 755.07  36.285  23.396
 755.57  36.285  23.396
 756.07  36.285  23.396
 756.57  36.221  23.396
 757.07  36.285  23.335
 757.57  36.285  23.396
 758.07  36.221  23.396
 758.57  36.285  23.396
 759.07  36.221  23.396
 759.57  36.285  23.396
 760.07  36.349  23.396
 760.57  36.285  23.366
 761.07  36.349  23.366
 761.57  36.349  23.427
 762.07  36.285  23.396
 762.57  36.413  23.396
 763.07  36.349  23.366
 763.57  36.285  23.396
 764.07  36.349  23.458
 764.57  36.285  23.396
 765.07  36.349  23.366
 765.57  36.285  23.366
 766.07  36.349  23.366
 766.57  36.349  23.396
 767.07  36.285  23.366
 767.57  36.349  23.396
 768.07  36.349  23.396
 768.57  36.349  23.427
 769.07  36.285  23.396
 769.57  36.349  23.427
 770.07  36.349  23.396
 770.57  36.413  23.427
 771.07  36.349  23.396
 771.57  36.349  23.396
 772.07  36.349  23.396
 772.57  36.349  23.396
 773.07  36.413  23.366
 773.57  36.413  23.396
 774.07  36.413  23.396
 774.57  36.413  23.396
 775.07  36.413  23.396
 775.57  36.477  23.489
 776.07  36.477  23.396
 776.57  36.413  23.427
 777.07  36.413  23.427
 777.57  36.413  23.396
 778.07  36.413  23.396
 778.57  36.413  23.427
 779.07  36.349  23.396
 779.57  36.349  23.396
 780.07  36.413  23.427
 780.57  36.285  23.396
 781.07  36.541  23.366
 781.57  36.541  23.366
 782.07  36.413  23.427
 782.57  36.413  23.396
 783.07  36.349  23.366
 783.57  36.413  23.396
 784.07  36.413  23.396
 784.57  36.413  23.396
 785.07  36.413  23.396
 785.57  36.413  23.427
 786.07  36.413  23.396
 786.57  36.413  23.396
 787.07  36.413  23.396
 787.57  36.477  23.427
 788.07  36.413  23.366
 788.57  36.349  23.396
 789.07  36.477  23.396
 789.57  36.413  23.366
 790.07  36.477  23.396
 790.57  36.477  23.396
 791.07  36.413  23.427
 791.57  36.477  23.427
 792.07  36.413  23.396
 792.57  36.413  23.396
 793.07  36.413  23.396
 793.57  36.477  23.396
 794.07  36.477  23.396
 794.57  36.413  23.366
 795.07  36.477  23.427
 795.57  36.413  23.396
 796.07  36.477  23.396
 796.57  36.477  23.396
 797.07  36.477  23.427
 797.57  36.477  23.396
 798.07  36.413  23.396
 798.57  36.477  23.396
 799.07  36.413  23.396
 799.57  36.413  23.366
 800.07  36.413  23.396
 800.57  36.605  23.396
 801.07  36.477  23.396
 801.57  36.477  23.396
 802.07  36.541  23.396
 802.57  36.477  23.396
 803.07  36.541  23.396
 803.57  36.605  23.396
 804.07  36.477  23.396
 804.57  36.477  23.427
 805.07  36.477  23.427
 805.57  36.541  23.396
 806.07  36.413  23.396
 806.57  36.477  23.396
 807.07  36.605  23.396
 807.57  36.541  23.427
 808.07  36.413  23.427
 808.57  36.541  23.427
 809.07  36.541  23.427
 809.57  36.541  23.427
 810.07  36.541  23.366
 810.57  36.541  23.396
 811.07  36.477  23.396
 811.57  36.541  23.427
 812.07  36.541  23.427
 812.57  36.669  23.427
 813.07  36.541  23.396
 813.57  36.541  23.427
 814.07  36.541  23.427
 814.57  36.541  23.458
 815.07  36.541  23.427
 815.57  36.605  23.396
 816.07  36.541  23.427
 816.57  36.541  23.396
 817.07  36.605  23.427
 817.57  36.605  23.396
 818.07  36.605  23.427
 818.57  36.605  23.427
 819.07  36.733  23.427
 819.57  36.733  23.427
 820.07  36.605  23.396
 820.57  36.605  23.396
 821.07  36.605  23.427
 821.57  36.605  23.427
 822.07  36.605  23.366
 822.57  36.605  23.427
 823.07  36.605  23.427
 823.57  36.605  23.427
 824.07  36.669  23.458
 824.57  36.605  23.396
 825.07  36.605  23.427
 825.57  36.605  23.427
 826.07  36.605  23.427
 826.57  36.605  23.366
 827.07  36.669  23.427
 827.57  36.605  23.427
 828.07  36.605  23.427
 828.57  36.669  23.427
 829.07  36.669  23.427
 829.57  36.541  23.427
 830.07  36.605  23.396
 830.57  36.669  23.427
 831.07  36.605  23.458
 831.57  36.669  23.396
 832.07  36.605  23.427
 832.57  36.669  23.396
 833.07  36.733  23.427
 833.57  36.669  23.427
 834.07  36.541  23.427
 834.57  36.669  23.427
 835.07  36.797  23.396
 835.57  36.669  23.427
 836.07  36.669  23.396
 836.57  36.669  23.427
 837.07  36.669  23.396
 837.57  36.669  23.427
 838.07  36.669  23.427
 838.57  36.669  23.458
 839.07  36.733  23.396
 839.58  36.733  23.366
 840.08  36.669  23.396
 840.58  36.733  23.427
 841.08  36.669  23.366
 841.58  36.669  23.427
 842.08  36.733  23.458
 842.58  36.669  23.396
 843.08  36.669  23.427
 843.58  36.733  23.396
 844.08  36.669  23.427
 844.58  36.669  23.396
 845.08  36.861  23.396
 845.58  36.733  23.427
 846.08  36.733  23.427
 846.58  36.669  23.366
 847.08  36.605  23.396
 847.58  36.669  23.427
 848.08  36.733  23.427
 848.58  36.733  23.396
 849.08  36.733  23.458
 849.58  36.733  23.396
 850.08  36.669  23.396
 850.58  36.733  23.396
 851.08  36.797  23.427
 851.58  36.797  23.458
 852.08  36.669  23.427
 852.58  36.797  23.427
 853.08  36.797  23.458
 853.58  36.733  23.427
 854.08  36.733  23.427
 854.58  36.733  23.396
 855.08  36.733  23.427
 855.58  36.605  23.427
 856.08  36.797  23.427
 856.58  36.733  23.427
 857.08  36.733  23.427
 857.58  36.733  23.458
 858.08  36.797  23.458
 858.58  36.797  23.427
 859.08  36.797  23.396
 859.58  36.797  23.458
 860.08  36.797  23.458
 860.58  36.733  23.427
 861.08  36.797  23.427
 861.58  36.733  23.427
 862.08  36.797  23.427
 862.58  36.605  23.427
 863.08  36.797  23.427
 863.58  36.669  23.458
 864.08  36.797  23.427
 864.58  36.733  23.427
 865.08  36.733  23.427
 865.58  36.797  23.396
 866.08  36.797  23.458
 866.58  36.797  23.427
 867.08  36.733  23.427
 867.58  36.797  23.427
 868.08  36.797  23.427
 868.58  36.925  23.427
 869.08  36.797  23.458
 869.58  36.797  23.396
 870.08  36.861  23.427
 870.58  36.797  23.458
 871.08  36.861  23.427
 871.58  36.733  23.427
 872.08  36.797  23.427
 872.58  36.797  23.458
 873.08  36.797  23.427
 873.58  36.861  23.427
 874.08  36.797  23.427
 874.58  36.861  23.427
 875.08  36.861  23.458
 875.58  36.925  23.427
 876.08  36.797  23.427
 876.58  36.797  23.396
 877.08  36.861  23.427
 877.58  36.861  23.427
 878.08  36.797  23.427
 878.58  36.925  23.427
 879.08  36.797  23.427
 879.58  36.861  23.489
 880.08  36.861  23.427
 880.58  36.861  23.427
 881.08  36.797  23.427
 881.58  36.861  23.396
 882.08  36.861  23.396
 882.58  36.925  23.520
 883.08  36.925  23.489
 883.58  36.861  23.458
 884.08  36.861  23.458
 884.58  36.797  23.458
 885.08  36.861  23.458
 885.58  36.925  23.427
 886.08  36.861  23.427
 886.58  36.797  23.427
 887.08  36.925  23.458
 887.58  36.925  23.427
 888.08  36.861  23.427
 888.58  36.797  23.427
 889.08  36.861  23.458
 889.58  36.861  23.427
 890.08  36.861  23.458
 890.58  36.861  23.458
 891.08  36.925  23.427
 891.58  36.797  23.458
 892.08  36.989  23.458
 892.58  36.861  23.427
 893.08  36.861  23.458
 893.58  36.797  23.458
 894.08  36.861  23.427
 894.58  36.861  23.427
 895.08  36.925  23.458
 895.58  36.989  23.458
 896.08  36.861  23.458
 896.58  36.925  23.427
 897.08  36.989  23.396
 897.58  37.053  23.427
 898.08  36.925  23.427
 898.58  36.925  23.458
 899.08  36.925  23.427
 899.58  36.925  23.427
 900.08  36.925  23.427
 900.58  36.925  23.458
 901.08  36.989  23.458
 901.58  36.989  23.458
 902.08  36.797  23.427
 902.58  36.861  23.458
 903.08  36.989  23.427
 903.58  36.989  23.458
 904.08  36.925  23.427
 904.58  36.989  23.427
 905.08  36.925  23.458
 905.58  36.989  23.458
 906.08  36.989  23.458
 906.58  36.989  23.458
 907.08  36.925  23.489
 907.58  36.925  23.427
 908.08  36.989  23.458
 908.58  36.925  23.458
 909.08  36.989  23.458
 909.58  36.925  23.458
 910.08  37.053  23.427
 910.58  36.989  23.427
 911.08  36.989  23.458
 911.58  36.989  23.458
 912.08  36.989  23.458
 912.58  36.989  23.427
 913.08  36.989  23.427
 913.58  36.989  23.458
 914.08  37.053  23.458
 914.58  36.989  23.520
 915.08  36.989  23.458
 915.58  36.989  23.427
 916.08  36.925  23.427
 916.58  37.053  23.520
 917.08  36.989  23.458
 917.58  36.925  23.458
 918.08  36.925  23.458
 918.58  36.989  23.396
 919.08  36.925  23.458
 919.58  37.053  23.458
 920.08  36.925  23.458
 920.58  36.989  23.458
 921.08  36.925  23.458
 921.58  36.989  23.458
 922.08  36.925  23.458
 922.58  36.989  23.427
 923.08  36.989  23.458
 923.58  36.989  23.458
 924.08  37.053  23.427
 924.58  36.989  23.458
 925.08  37.053  23.458
 925.58  36.989  23.427
 926.08  37.117  23.427
 926.58  37.053  23.458
 927.08  37.053  23.366
 927.58  37.053  23.458
 928.08  37.053  23.458
 928.58  36.989  23.427
 929.08  37.053  23.396
 929.58  37.053  23.458
 930.08  37.053  23.489
 930.58  37.053  23.427
 931.08  37.053  23.458
 931.58  36.989  23.458
 932.08  37.053  23.427
 932.58  36.989  23.458
 933.08  36.989  23.427
 933.58  37.181  23.427
 934.08  37.053  23.427
 934.58  37.053  23.458
 935.08  37.117  23.489
 935.58  37.117  23.427
 936.08  37.117  23.427
 936.58  37.117  23.458
 937.08  37.117  23.427
 937.58  37.053  23.489
 938.08  37.053  23.458
 938.58  37.117  23.489
 939.08  37.117  23.458
 939.58  37.117  23.458
 940.08  37.117  23.458
 940.58  37.053  23.458
 941.08  37.053  23.458
 941.58  37.117  23.458
 942.08  37.053  23.427
 942.58  37.181  23.458
 943.08  37.053  23.427
 943.58  37.053  23.458
 944.08  37.053  23.489
 944.58  37.181  23.366
 945.08  37.053  23.458
 945.58  37.117  23.458
 946.08  37.117  23.427
 946.58  37.181  23.458
 947.08  37.117  23.458
 947.58  37.117  23.458
 948.08  37.117  23.458
 948.58  37.117  23.458
 949.08  37.053  23.458
 949.58  37.053  23.427
 950.08  37.117  23.458
 950.58  37.053  23.427
 951.08  37.117  23.489
 951.58  37.053  23.458
 952.08  37.053  23.458
 952.58  37.181  23.458
 953.09  37.117  23.458
 953.59  37.117  23.489
 954.09  37.181  23.458
 954.59  37.181  23.458
 955.09  37.117  23.458
 955.59  37.117  23.458
 956.09  37.117  23.458
 956.59  37.117  23.458
 957.09  37.117  23.458
 957.59  37.181  23.489
 958.09  37.117  23.458
 958.59  37.181  23.458
 959.09  37.117  23.458
 959.59  37.117  23.489
 960.09  37.181  23.489
 960.59  37.245  23.458
 961.09  37.181  23.489
 961.59  37.053  23.458
 962.09  37.181  23.458
 962.59  37.181  23.458
 963.09  37.181  23.458
 963.59  37.181  23.489
 964.09  37.181  23.458
 964.59  37.117  23.489
 965.09  37.181  23.489
 965.59  37.245  23.489
 966.09  37.181  23.489
 966.59  37.181  23.520
 967.09  37.245  23.489
 967.59  37.181  23.458
 968.09  37.245  23.550
 968.59  37.181  23.458
 969.09  37.181  23.489
 969.59  37.245  23.458
 970.09  37.245  23.458
 970.59  37.181  23.489
 971.09  37.245  23.489
 971.59  37.181  23.489
 972.09  37.181  23.489
 972.59  37.181  23.458
 973.09  37.309  23.489
 973.59  37.181  23.458
 974.09  37.245  23.458
 974.59  37.181  23.489
 975.09  37.245  23.489
 975.59  37.181  23.458
 976.09  37.181  23.458
 976.59  37.181  23.458
 977.09  37.309  23.458
 977.59  37.181  23.489
 978.09  37.181  23.458
 978.59  37.053  23.458
 979.09  37.245  23.489
 979.59  37.245  23.489
 980.09  37.245  23.427
 980.59  37.245  23.489
 981.09  37.245  23.458
 981.59  37.309  23.458
 982.09  37.181  23.550
 982.59  37.245  23.550
 983.09  37.245  23.458
 983.59  37.245  23.458
 984.09  37.245  23.489
 984.59  37.245  23.489
 985.09  37.245  23.489
 985.59  37.373  23.520
 986.09  37.245  23.489
 986.59  37.245  23.458
 987.09  37.245  23.396
 987.59  37.245  23.458
 988.09  37.309  23.458
 988.59  37.245  23.489
 989.09  37.309  23.489
 989.59  37.309  23.520
 990.09  37.245  23.489
 990.59  37.245  23.458
 991.09  37.245  23.427
 991.59  37.309  23.489
 992.09  37.181  23.489
 992.59  37.245  23.489
 993.09  37.245  23.489
 993.59  37.245  23.489
 994.09  37.245  23.458
 994.59  37.309  23.489
 995.09  37.309  23.489
 995.59  37.309  23.458
 996.09  37.245  23.458
 996.59  37.053  23.489
 997.09  37.245  23.458
 997.59  37.245  23.427
 998.09  37.245  23.458
 998.59  37.373  23.458
 999.09  37.309  23.458
 999.59  37.245  23.458
1000.09  37.309  23.489
1000.59  37.309  23.458
1001.09  37.309  23.458
1001.59  37.309  23.489
1002.09  37.309  23.489
1002.59  37.309  23.458
1003.09  37.309  23.458
1003.59  37.309  23.489
1004.09  37.309  23.489
1004.59  37.309  23.489
1005.09  37.309  23.458
1005.59  37.309  23.489
1006.09  37.309  23.489
1006.59  37.373  23.458
1007.09  37.245  23.458
1007.59  37.245  23.458
1008.09  37.437  23.458
1008.59  37.373  23.458
1009.09  37.309  23.458
1009.59  37.373  23.520
1010.09  37.437  23.458
1010.59  37.373  23.489
1011.09  37.309  23.489
1011.59  37.373  23.550
1012.09  37.309  23.520
1012.59  37.309  23.458
1013.09  37.373  23.489
1013.59  37.437  23.458
1014.09  37.373  23.458
1014.59  37.373  23.489
1015.09  37.373  23.489
1015.59  37.437  23.427
1016.09  37.373  23.458
1016.59  37.373  23.489
1017.09  37.373  23.489
1017.59  37.373  23.489
1018.09  37.309  23.489
1018.59  37.373  23.520
1019.09  37.373  23.520
1019.59  37.373  23.489
1020.09  37.437  23.458
1020.59  37.437  23.489
1021.09  37.373  23.489
1021.59  37.373  23.489
1022.09  37.309  23.489
1022.59  37.373  23.489
1023.09  37.437  23.550
1023.59  37.309  23.458
1024.09  37.373  23.458
1024.59  37.437  23.520
1025.09  37.373  23.489
1025.59  37.373  23.489
1026.09  37.437  23.458
1026.59  37.373  23.489
1027.09  37.373  23.489
1027.59  37.309  23.489
1028.09  37.309  23.520
1028.59  37.373  23.458
1029.09  37.373  23.489
1029.59  37.309  23.489
1030.09  37.437  23.489
1030.59  37.373  23.489
1031.09  37.373  23.458
1031.59  37.437  23.489
1032.09  37.437  23.489
1032.59  37.437  23.458
1033.09  37.437  23.489
1033.59  37.373  23.458
1034.09  37.437  23.458
1034.59  37.373  23.520
1035.09  37.501  23.489
1035.59  37.437  23.520
1036.09  37.437  23.489
1036.59  37.373  23.489
1037.09  37.373  23.489
1037.59  37.501  23.489
1038.09  37.437  23.427
1038.59  37.373  23.520
1039.09  37.437  23.520
1039.59  37.437  23.489
1040.09  37.373  23.489
1040.59  37.373  23.458
1041.09  37.437  23.520
1041.59  37.501  23.489
1042.09  37.501  23.489
1042.59  37.437  23.489
1043.09  37.501  23.489
1043.59  37.437  23.489
1044.09  37.437  23.489
1044.59  37.501  23.489
1045.09  37.437  23.520
1045.59  37.437  23.520
1046.09  37.437  23.489
1046.59  37.437  23.520
1047.09  37.437  23.458
1047.59  37.437  23.489
1048.09  37.501  23.520
1048.59  37.437  23.520
1049.09  37.437  23.458
1049.59  37.501  23.520
1050.09  37.373  23.520
1050.59  37.501  23.520
1051.09  37.501  23.520
1051.59  37.501  23.489
1052.09  37.501  23.489
1052.59  37.501  23.489
1053.09  37.501  23.520
1053.59  37.501  23.520
1054.09  37.501  23.520
1054.59  37.501  23.520
1055.09  37.501  23.520
1055.59  37.437  23.489
1056.09  37.501  23.520
1056.59  37.501  23.520
1057.09  37.373  23.489
1057.59  37.501  23.489
1058.09  37.501  23.520
1058.59  37.501  23.766
1059.09  37.501  23.520
1059.59  37.501  23.520
1060.09  37.565  23.520
1060.59  37.501  23.489
1061.09  37.501  23.520
1061.59  37.437  23.520
1062.09  37.501  23.520
1062.59  37.437  23.489
1063.09  37.501  23.520
1063.59  37.565  23.520
1064.09  37.501  23.489
1064.59  37.437  23.520
1065.09  37.501  23.520
1065.59  37.501  23.489
1066.10  37.501  23.489
1066.60  37.501  23.550
1067.10  37.501  23.520
1067.60  37.565  23.489
1068.10  37.437  23.489
1068.60  37.565  23.520
1069.10  37.629  23.520
1069.60  37.565  23.489
1070.10  37.565  23.550
1070.60  37.565  23.489
1071.10  37.565  23.581
1071.60  37.437  23.489
1072.10  37.501  23.489
1072.60  37.565  23.520
1073.10  37.565  23.520
1073.60  37.501  23.520
1074.10  37.629  23.520
1074.60  37.565  23.520
1075.10  37.565  23.520
1075.60  37.565  23.489
1076.10  37.437  23.458
1076.60  37.501  23.550
1077.10  37.565  23.520
1077.60  37.565  23.520
1078.10  37.565  23.489
1078.60  37.501  23.520
1079.10  37.629  23.520
1079.60  37.565  23.550
1080.10  37.565  23.520
1080.60  37.629  23.520
1081.10  37.565  23.520
1081.60  37.629  23.489
1082.10  37.629  23.550
1082.60  37.629  23.520
1083.10  37.565  23.550
1083.60  37.565  23.550
1084.10  37.629  23.489
1084.60  37.565  23.489
1085.10  37.629  23.520
1085.60  37.565  23.520
1086.10  37.565  23.458
1086.60  37.629  23.520
1087.10  37.629  23.520
1087.60  37.501  23.520
1088.10  37.565  23.520
1088.60  37.565  23.520
1089.10  37.629  23.489
1089.60  37.757  23.520
1090.10  37.565  23.520
1090.60  37.629  23.520
1091.10  37.565  23.520
1091.60  37.693  23.489
1092.10  37.565  23.520
1092.60  37.629  23.520
1093.10  37.629  23.520
1093.60  37.693  23.520
1094.10  37.629  23.520
1094.60  37.629  23.520
1095.10  37.629  23.520
1095.60  37.565  23.550
1096.10  37.629  23.520
1096.60  37.565  23.489
1097.10  37.629  23.520
1097.60  37.629  23.520
1098.10  37.629  23.550
1098.60  37.501  23.520
1099.10  37.629  23.520
1099.60  37.565  23.520
1100.10  37.693  23.489
1100.60  37.693  23.550
1101.10  37.629  23.520
1101.60  37.629  23.550
1102.10  37.629  23.550
1102.60  37.629  23.520
1103.10  37.629  23.458
1103.60  37.629  23.520
1104.10  37.629  23.520
1104.60  37.629  23.520
1105.10  37.629  23.520
1105.60  37.629  23.520
1106.10  37.693  23.520
1106.60  37.757  23.550
1107.10  37.629  23.520
1107.60  37.629  23.489
1108.10  37.693  23.520
1108.60  37.629  23.520
1109.10  37.629  23.550
1109.60  37.629  23.489
1110.10  37.693  23.520
1110.60  37.693  23.520
1111.10  37.629  23.520
1111.60  37.629  23.489
1112.10  37.693  23.550
1112.60  37.629  23.489
1113.10  37.629  23.550
1113.60  37.629  23.550
1114.10  37.821  23.550
1114.60  37.693  23.550
1115.10  37.757  23.489
1115.60  37.629  23.550
1116.10  37.757  23.520
1116.60  37.693  23.581
1117.10  37.693  23.520
1117.60  37.693  23.520
1118.10  37.693  23.550
1118.60  37.693  23.520
1119.10  37.629  23.581
1119.60  37.757  23.550
1120.10  37.693  23.520
1120.60  37.693  23.550
1121.10  37.693  23.489
1121.60  37.821  23.550
1122.10  37.629  23.520
1122.60  37.757  23.520
1123.10  37.693  23.550
1123.60  37.693  23.520
1124.10  37.693  23.520
1124.60  37.693  23.520
1125.10  37.693  23.550
1125.60  37.629  23.550
1126.10  37.693  23.520
1126.60  37.757  23.581
1127.10  37.757  23.520
1127.60  37.693  23.550
1128.10  37.693  23.550
1128.60  37.693  23.520
1129.10  37.693  23.520
1129.60  37.629  23.520
1130.10  37.629  23.550
1130.60  37.757  23.550
1131.10  37.629  23.581
1131.60  37.693  23.520
1132.10  37.757  23.520
1132.60  37.693  23.520
1133.10  37.757  23.550
1133.60  37.693  23.520
1134.10  37.693  23.550
1134.60  37.693  23.520
1135.10  37.757  23.550
1135.60  37.757  23.550
1136.10  37.693  23.550
1136.60  37.757  23.550
1137.10  37.757  23.550
1137.60  37.757  23.581
1138.10  37.757  23.520
1138.60  37.757  23.550
1139.10  37.693  23.550
1139.60  37.757  23.550
1140.10  37.757  23.520
1140.60  37.757  23.550
1141.10  37.693  23.612
1141.60  37.821  23.520
1142.10  37.693  23.489
1142.60  37.757  23.550
1143.10  37.757  23.550
1143.60  37.693  23.581
1144.10  37.757  23.520
1144.60  37.821  23.581
1145.10  37.821  23.520
1145.60  37.757  23.489
1146.10  37.821  23.520
1146.60  37.757  23.550
1147.10  37.757  23.550
1147.60  37.757  23.520
1148.10  37.757  23.550
1148.60  37.757  23.550
1149.10  37.757  23.520
1149.60  37.757  23.520
1150.10  37.821  23.550
1150.60  37.757  23.550
1151.10  37.757  23.550
1151.60  37.693  23.520
1152.10  37.757  23.520
1152.60  37.693  23.520
1153.10  37.757  23.550
1153.60  37.821  23.550
1154.10  37.757  23.550
1154.60  37.757  23.489
1155.10  37.757  23.520
1155.60  37.757  23.550
1156.10  37.821  23.550
1156.60  37.757  23.520
1157.10  37.757  23.550
1157.60  37.757  23.550
1158.10  37.821  23.581
1158.60  37.821  23.550
1159.10  37.757  23.550
1159.60  37.757  23.520
1160.10  37.757  23.550
1160.60  37.821  23.489
1161.10  37.821  23.550
1161.60  37.757  23.550
1162.10  37.821  23.520
1162.60  37.757  23.550
1163.10  37.885  23.550
1163.60  37.821  23.520
1164.10  37.821  23.550
1164.60  37.821  23.550
1165.10  37.821  23.550
1165.60  37.821  23.520
1166.10  37.693  23.550
1166.60  37.757  23.550
1167.10  37.757  23.550
1167.60  37.821  23.520
1168.10  37.821  23.550
1168.60  37.821  23.581
1169.10  37.757  23.550
1169.60  37.757  23.550
1170.10  37.885  23.550
1170.60  37.885  23.550
1171.10  37.885  23.550
1171.60  37.821  23.550
1172.10  37.821  23.550
1172.60  37.821  23.550
1173.10  37.821  23.520
1173.60  37.821  23.581
1174.10  37.821  23.520
1174.60  37.821  23.520
1175.10  37.949  23.550
1175.60  37.821  23.520
1176.10  37.821  23.550
1176.60  37.821  23.550
1177.10  37.821  23.550
1177.60  37.885  23.520
1178.10  37.885  23.550
1178.60  37.821  23.550
1179.11  37.821  23.550
1179.61  37.885  23.520
1180.11  37.885  23.550
1180.61  37.885  23.550
1181.11  37.821  23.550
1181.61  37.885  23.550
1182.11  37.885  23.550
1182.61  37.821  23.581
1183.11  37.821  23.550
1183.61  37.821  23.550
1184.11  37.821  23.520
1184.61  37.885  23.520
1185.11  37.821  23.520
1185.61  37.821  23.550
1186.11  37.885  23.550
1186.61  37.757  23.550
1187.11  37.885  23.581
1187.61  37.885  23.550
1188.11  37.885  23.550
1188.61  37.885  23.581
1189.11  37.885  23.550
1189.61  37.821  23.550
1190.11  37.885  23.520
1190.61  37.885  23.550
1191.11  37.821  23.612
1191.61  37.885  23.550
1192.11  37.757  23.520
1192.61  37.949  23.550
1193.11  37.885  23.550
1193.61  37.885  23.581
1194.11  37.885  23.550
1194.61  37.885  23.550
1195.11  37.949  23.550
1195.61  37.949  23.520
1196.11  37.885  23.520
1196.61  37.885  23.550
1197.11  37.885  23.550
1197.61  37.949  23.550
1198.11  37.885  23.550
1198.61  37.949  23.550
1199.11  37.885  23.520
1199.61  37.885  23.550
1200.11  37.949  23.581
1200.61  37.885  23.550
1201.11  37.949  23.550
1201.61  37.885  23.550
1202.11  37.949  23.550
1202.61  37.949  23.581
1203.11  37.821  23.520
1203.61  37.885  23.550
1204.11  37.885  23.550
1204.61  37.949  23.581
1205.11  37.949  23.550
1205.61  37.885  23.550
1206.11  37.949  23.581
1206.61  37.821  23.550
1207.11  37.949  23.520
1207.61  37.949  23.581
1208.11  37.949  23.550
1208.61  37.949  23.550
1209.11  37.949  23.581
1209.61  38.013  23.581
1210.11  37.949  23.550
1210.61  37.949  23.550
1211.11  37.885  23.581
1211.61  37.949  23.550
1212.11  38.013  23.550
1212.61  37.949  23.550
1213.11  38.013  23.581
1213.61  37.949  23.550
1214.11  37.949  23.550
1214.61  37.885  23.550
1215.11  37.949  23.520
1215.61  37.949  23.581
1216.11  38.013  23.581
1216.61  37.885  23.550
1217.11  38.013  23.550
1217.61  38.013  23.612
1218.11  38.013  23.550
1218.61  37.949  23.581
1219.11  38.013  23.550
1219.61  37.949  23.550
1220.11  37.949  23.550
1220.61  37.949  23.581
1221.11  37.949  23.581
1221.61  37.949  23.550
1222.11  38.077  23.520
1222.61  37.885  23.550
1223.11  37.949  23.550
1223.61  37.949  23.550
1224.11  37.949  23.550
1224.61  37.885  23.550
1225.11  37.949  23.550
1225.61  37.949  23.550
1226.11  37.949  23.550
1226.61  37.949  23.581
1227.11  37.949  23.550
1227.61  37.949  23.550
1228.11  38.013  23.550
1228.61  38.141  23.520
1229.11  37.949  23.581
1229.61  38.013  23.550
1230.11  38.013  23.581
1230.61  38.013  23.550
1231.11  38.013  23.520
1231.61  37.949  23.581
1232.11  38.013  23.550
1232.61  37.949  23.550
1233.11  38.013  23.550
1233.61  38.013  23.550
1234.11  37.949  23.550
1234.61  38.013  23.520
1235.11  38.013  23.581
1235.61  38.013  23.581
1236.11  38.013  23.550
1236.61  37.949  23.550
1237.11  38.013  23.550
1237.61  38.013  23.581
1238.11  37.949  23.550
1238.61  38.013  23.550
1239.11  38.013  23.581
1239.61  38.013  23.581
1240.11  38.013  23.581
1240.61  38.013  23.550
1241.11  38.013  23.520
1241.61  38.013  23.550
1242.11  38.013  23.581
1242.61  37.949  23.550
1243.11  38.013  23.550
1243.61  38.013  23.550
1244.11  38.013  23.581
1244.61  38.013  23.612
1245.11  37.949  23.550
1245.61  38.013  23.581
1246.11  38.077  23.581
1246.61  37.885  23.581
1247.11  38.013  23.581
1247.61  37.885  23.581
1248.11  38.013  23.550
1248.61  38.013  23.550
1249.11  38.013  23.581
1249.61  38.013  23.520
1250.11  38.013  23.550
1250.61  38.077  23.581
1251.11  38.013  23.550
1251.61  38.077  23.581
1252.11  38.141  23.581
1252.61  38.013  23.581
1253.11  38.013  23.581
1253.61  37.949  23.581
1254.11  38.013  23.581
1254.61  38.013  23.581
1255.11  38.013  23.581
1255.61  38.077  23.581
1256.11  38.205  23.581
1256.61  38.077  23.550
1257.11  38.077  23.612
1257.61  38.141  23.520
1258.11  38.013  23.550
1258.61  38.077  23.550
1259.11  38.077  23.550
1259.61  38.077  23.550
1260.11  38.013  23.581
1260.61  38.013  23.550
1261.11  38.077  23.581
1261.61  38.077  23.550
1262.11  38.013  23.581
1262.61  38.013  23.581
1263.11  38.077  23.581
1263.61  38.141  23.581
1264.11  38.141  23.520
1264.61  38.077  23.550
1265.11  38.013  23.581
1265.61  38.141  23.612
1266.11  38.077  23.550
1266.61  38.077  23.581
1267.11  38.205  23.581
1267.61  38.077  23.581
1268.11  38.205  23.581
1268.61  38.077  23.581
1269.11  38.077  23.550
1269.61  38.141  23.581
1270.11  38.077  23.550
1270.61  38.077  23.581
1271.11  38.077  23.612
1271.61  38.077  23.581
1272.11  37.949  23.581
1272.61  38.077  23.581
1273.11  38.077  23.581
1273.61  38.077  23.581
1274.11  38.077  23.612
1274.61  38.077  23.520
1275.11  38.141  23.581
1275.61  38.077  23.581
1276.11  38.141  23.581
1276.61  38.141  23.581
1277.11  38.141  23.581
1277.61  38.141  23.612
1278.11  38.141  23.581
1278.61  38.141  23.612
1279.11  38.141  23.581
1279.61  38.141  23.581
1280.11  38.077  23.612
1280.61  38.077  23.581
1281.11  38.141  23.612
1281.61  38.141  23.581
1282.11  38.141  23.581
1282.61  38.077  23.581
1283.11  38.141  23.550
1283.61  38.141  23.581
1284.11  38.141  23.581
1284.61  38.205  23.612
1285.11  38.141  23.581
1285.61  38.141  23.643
1286.11  38.205  23.581
1286.61  38.141  23.581
1287.11  38.077  23.581
1287.61  38.141  23.612
1288.11  38.205  23.550
1288.61  38.141  23.581
1289.11  38.077  23.581
1289.61  38.141  23.612
1290.11  38.141  23.581
1290.61  38.141  23.643
1291.11  38.077  23.612
1291.61  38.141  23.581
1292.11  38.141  23.581
1292.62  38.141  23.581
1293.12  38.141  23.581
1293.62  38.141  23.581
1294.12  38.141  23.612
1294.62  38.205  23.581
1295.12  38.205  23.581
1295.62  38.269  23.581
1296.12  38.205  23.581
1296.62  38.141  23.643
1297.12  38.077  23.612
1297.62  38.077  23.612
1298.12  38.141  23.612
1298.62  38.141  23.612
1299.12  38.205  23.643
1299.62  38.205  23.612
1300.12  38.205  23.581
1300.62  38.205  23.581
1301.12  38.077  23.581
1301.62  38.141  23.581
1302.12  38.269  23.581
1302.62  38.205  23.612
1303.12  38.205  23.581
1303.62  38.205  23.581
1304.12  38.205  23.581
1304.62  38.141  23.612
1305.12  38.141  23.612
1305.62  38.141  23.581
1306.12  38.269  23.581
1306.62  38.141  23.581
1307.12  38.205  23.581
1307.62  38.205  23.612
1308.12  38.141  23.612
1308.62  38.269  23.612
1309.12  38.205  23.612
1309.62  38.269  23.643
1310.12  38.205  23.612
1310.62  38.205  23.581
1311.12  38.333  23.612
1311.62  38.205  23.581
1312.12  38.205  23.581
1312.62  38.205  23.612
1313.12  38.269  23.581
1313.62  38.205  23.612
1314.12  38.269  23.612
1314.62  38.205  23.612
1315.12  38.269  23.581
1315.62  38.269  23.612
1316.12  38.205  23.581
1316.62  38.205  23.581
1317.12  38.269  23.581
1317.62  38.141  23.581
1318.12  38.205  23.643
1318.62  38.269  23.612
1319.12  38.205  23.550
1319.62  38.205  23.612
1320.12  38.269  23.581
1320.62  38.205  23.581
1321.12  38.269  23.612
1321.62  38.269  23.581
1322.12  38.205  23.612
1322.62  38.205  23.581
1323.12  38.205  23.581
1323.62  38.205  23.581
1324.12  38.205  23.612
1324.62  38.205  23.612
1325.12  38.205  23.612
1325.62  38.205  23.612
1326.12  38.269  23.643
1326.62  38.205  23.581
1327.12  38.333  23.612
1327.62  38.205  23.612
1328.12  38.205  23.612
1328.62  38.141  23.612
1329.12  38.205  23.581
1329.62  38.205  23.581
1330.12  38.205  23.643
1330.62  38.269  23.612
1331.12  38.205  23.643
1331.62  38.205  23.705
1332.12  38.269  23.612
1332.62  38.141  23.581
1333.12  38.141  23.612
1333.62  38.205  23.612
1334.12  38.269  23.612
1334.62  38.205  23.612
1335.12  38.269  23.612
1335.62  38.269  23.581
1336.12  38.205  23.643
1336.62  38.333  23.612
1337.12  38.205  23.643
1337.62  38.205  23.581
1338.12  38.333  23.612
1338.62  38.333  23.612
1339.12  38.269  23.612
1339.62  38.397  23.612
1340.12  38.205  23.612
1340.62  38.269  23.581
1341.12  38.269  23.612
1341.62  38.205  23.612
1342.12  38.269  23.643
1342.62  38.269  23.643
1343.12  38.269  23.612
1343.62  38.269  23.612
1344.12  38.269  23.581
1344.62  38.269  23.643
1345.12  38.269  23.612
1345.62  38.205  23.581
1346.12  38.205  23.612
1346.62  38.269  23.612
1347.12  38.333  23.581
1347.62  38.269  23.612
1348.12  38.333  23.612
1348.62  38.269  23.643
1349.12  38.205  23.581
1349.62  38.333  23.612
1350.12  38.269  23.612
1350.62  38.269  23.643
1351.12  38.333  23.612
1351.62  38.269  23.643
1352.12  38.269  23.581
1352.62  38.397  23.612
1353.12  38.333  23.643
1353.62  38.269  23.581
1354.12  38.333  23.581
1354.62  38.269  23.612
1355.12  38.333  23.643
1355.62  38.333  23.612
1356.12  38.333  23.581
1356.62  38.269  23.612
1357.12  38.269  23.581
1357.62  38.333  23.612
1358.12  38.269  23.612
1358.62  38.269  23.612
1359.12  38.333  23.612
1359.62  38.269  23.612
1360.12  38.269  23.612
1360.62  38.141  23.612
1361.12  38.333  23.581
1361.62  38.269  23.612
1362.12  38.269  23.705
1362.62  38.205  23.581
1363.12  38.333  23.612
1363.62  38.269  23.612
1364.12  38.333  23.612
1364.62  38.269  23.581
1365.12  38.269  23.612
1365.62  38.269  23.612
1366.12  38.333  23.581
1366.62  38.333  23.643
1367.12  38.269  23.643
1367.62  38.205  23.612
1368.12  38.269  23.612
1368.62  38.461  23.612
1369.12  38.333  23.581
1369.62  38.333  23.643
1370.12  38.333  23.581
1370.62  38.333  23.581
1371.12  38.333  23.612
1371.62  38.333  23.612
1372.12  38.333  23.643
1372.62  38.269  23.581
1373.12  38.269  23.581
1373.62  38.333  23.612
1374.12  38.333  23.581
1374.62  38.397  23.643
1375.12  38.397  23.581
1375.62  38.269  23.581
1376.12  38.269  23.581
1376.62  38.333  23.612
1377.12  38.333  23.612
1377.62  38.397  23.612
1378.12  38.397  23.612
1378.62  38.333  23.612
1379.12  38.205  23.612
1379.62  38.333  23.581
1380.12  38.333  23.550
1380.62  38.333  23.612
1381.12  38.333  23.674
1381.62  38.397  23.581
1382.12  38.333  23.581
1382.62  38.333  23.581
1383.12  38.333  23.612
1383.62  38.205  23.581
1384.12  38.333  23.612
1384.62  38.333  23.612
1385.12  38.205  23.581
1385.62  38.269  23.612
1386.12  38.333  23.612
1386.62  38.333  23.612
1387.12  38.333  23.612
1387.62  38.397  23.612
1388.12  38.397  23.643
1388.62  38.397  23.612
1389.12  38.333  23.612
1389.62  38.333  23.612
1390.12  38.397  23.612
1390.62  38.333  23.612
1391.12  38.333  23.581
1391.62  38.333  23.612
1392.12  38.397  23.612
1392.62  38.397  23.612
1393.12  38.397  23.612
1393.62  38.333  23.612
1394.12  38.397  23.643
1394.62  38.333  23.612
1395.12  38.397  23.612
1395.62  38.397  23.643
1396.12  38.397  23.612
1396.62  38.333  23.643
1397.12  38.397  23.643
1397.62  38.461  23.612
1398.12  38.397  23.674
1398.62  38.397  23.612
1399.12  38.397  23.643
1399.62  38.397  23.643
1400.12  38.397  23.643
1400.62  38.397  23.612
1401.12  38.397  23.643
1401.62  38.397  23.643
1402.12  38.397  23.643
1402.62  38.397  23.612
1403.12  38.397  23.643
1403.62  38.397  23.674
1404.12  38.333  23.643
1404.62  38.333  23.643
1405.12  38.397  23.643
1405.62  38.461  23.612
1406.12  38.525  23.643
1406.62  38.461  23.674
1407.12  38.461  23.643
1407.62  38.461  23.643
1408.12  38.397  23.643
1408.62  38.397  23.612
1409.12  38.397  23.643
1409.62  38.397  23.581
1410.12  38.461  23.643
1410.62  38.397  23.643
1411.12  38.461  23.612
1411.62  38.461  23.643
1412.12  38.397  23.581
1412.62  38.397  23.581
1413.12  38.269  23.612
1413.62  38.333  23.674
1414.12  38.461  23.643
1414.62  38.461  23.612
1415.12  38.461  23.612
1415.62  38.397  23.643
1416.12  38.461  23.581
1416.63  38.397  23.612
1417.13  38.333  23.612
1417.63  38.461  23.612
1418.13  38.397  23.612
1418.63  38.333  23.612
1419.13  38.397  23.643
1419.63  38.333  23.643
1420.13  38.397  23.643
1420.63  38.397  23.643
1421.13  38.397  23.643
1421.63  38.333  23.643
1422.13  38.333  23.643
1422.63  38.397  23.643
1423.13  38.461  23.643
1423.63  38.461  23.643
1424.13  38.461  23.643
1424.63  38.397  23.643
1425.13  38.333  23.643
1425.63  38.397  23.674
1426.13  38.397  23.643
1426.63  38.461  23.643
1427.13  38.461  23.643
1427.63  38.461  23.643
1428.13  38.397  23.612
1428.63  38.397  23.643
1429.13  38.461  23.643
1429.63  38.461  23.643
1430.13  38.525  23.674
1430.63  38.397  23.612
1431.13  38.461  23.581
1431.63  38.461  23.643
1432.13  38.525  23.612
1432.63  38.397  23.643
1433.13  38.397  23.643
1433.63  38.461  23.643
1434.13  38.461  23.643
1434.63  38.461  23.612
1435.13  38.461  23.643
1435.63  38.589  23.612
1436.13  38.397  23.643
1436.63  38.461  23.674
1437.13  38.397  23.643
1437.63  38.461  23.643
1438.13  38.461  23.643
1438.63  38.461  23.674
1439.13  38.397  23.643
1439.63  38.461  23.643
1440.13  38.461  23.643
1440.63  38.461  23.643
1441.13  38.525  23.612
1441.63  38.461  23.643
1442.13  38.461  23.674
1442.63  38.461  23.643
1443.13  38.525  23.643
1443.63  38.525  23.643
1444.13  38.525  23.643
1444.63  38.461  23.612
1445.13  38.397  23.643
1445.63  38.461  23.643
1446.13  38.525  23.643
1446.63  38.461  23.643
1447.13  38.525  23.643
1447.63  38.525  23.643
1448.13  38.461  23.674
1448.63  38.525  23.643
1449.13  38.461  23.643
1449.63  38.525  23.643
1450.13  38.461  23.643
1450.63  38.525  23.612
1451.13  38.525  23.643
1451.63  38.525  23.643
1452.13  38.397  23.612
1452.63  38.525  23.643
1453.13  38.525  23.581
1453.63  38.461  23.674
1454.13  38.461  23.674
1454.63  38.461  23.612
1455.13  38.461  23.643
1455.63  38.525  23.674
1456.13  38.461  23.612
1456.63  38.461  23.643
1457.13  38.525  23.612
1457.63  38.461  23.643
1458.13  38.525  23.643
1458.63  38.525  23.643
1459.13  38.461  23.643
1459.63  38.525  23.643
1460.13  38.461  23.612
1460.63  38.461  23.643
1461.13  38.461  23.612
1461.63  38.525  23.643
1462.13  38.525  23.674
1462.63  38.461  23.674
1463.13  38.397  23.643
1463.63  38.589  23.674
1464.13  38.461  23.643
1464.63  38.461  23.643
1465.13  38.525  23.612
1465.63  38.525  23.674
1466.13  38.525  23.643
1466.63  38.525  23.643
1467.13  38.525  23.612
1467.63  38.461  23.674
1468.13  38.525  23.643
1468.63  38.525  23.674
1469.13  38.525  23.674
1469.63  38.525  23.674
1470.13  38.461  23.735
1470.63  38.397  23.643
1471.13  38.525  23.643
1471.63  38.525  23.674
1472.13  38.525  23.674
1472.63  38.653  23.643
1473.13  38.589  23.705
1473.63  38.653  23.674
1474.13  38.589  23.643
1474.63  38.461  23.643
1475.13  38.461  23.674
1475.63  38.525  23.612
1476.13  38.461  23.643
1476.63  38.525  23.643
1477.13  38.525  23.643
1477.63  38.525  23.643
1478.13  38.653  23.643
1478.63  38.589  23.643
1479.13  38.525  23.674
1479.63  38.525  23.643
1480.13  38.525  23.643
1480.63  38.589  23.643
1481.13  38.525  23.674
1481.63  38.525  23.643
1482.13  38.589  23.674
1482.63  38.589  23.643
1483.13  38.461  23.643
1483.63  38.589  23.705
1484.13  38.589  23.612
1484.63  38.525  23.674
1485.13  38.525  23.643
1485.63  38.525  23.643
1486.13  38.525  23.705
1486.63  38.461  23.643
1487.13  38.525  23.612
1487.63  38.525  23.643
1488.13  38.589  23.674
1488.63  38.589  23.643
1489.13  38.589  23.674
1489.63  38.525  23.674
1490.13  38.525  23.643
1490.63  38.525  23.643
1491.13  38.525  23.674
1491.63  38.525  23.674
1492.13  38.589  23.674
1492.63  38.589  23.705
1493.13  38.589  23.643
1493.63  38.525  23.643
1494.13  38.589  23.643
1494.63  38.589  23.643
1495.13  38.525  23.643
1495.63  38.525  23.643
1496.13  38.525  23.674
1496.63  38.589  23.674
1497.13  38.717  23.643
1497.63  38.525  23.674
1498.13  38.589  23.674
1498.63  38.589  23.674
1499.13  38.653  23.643
1499.63  38.589  23.643
1500.13  38.525  23.674
1500.63  38.653  23.674
1501.13  38.717  23.674
1501.63  38.589  23.674
1502.13  38.525  23.643
1502.63  38.525  23.643
1503.13  38.653  23.643
1503.63  38.653  23.643
1504.13  38.461  23.674
1504.63  38.589  23.643
1505.13  38.525  23.674
1505.63  38.589  23.674
1506.13  38.653  23.643
1506.63  38.589  23.643
1507.13  38.589  23.643
1507.63  38.589  23.612
1508.13  38.589  23.674
1508.63  38.589  23.674
1509.13  38.589  23.674
1509.63  38.589  23.674
1510.13  38.589  23.674
1510.63  38.589  23.674
1511.13  38.653  23.674
1511.63  38.589  23.674
1512.13  38.589  23.674
1512.63  38.589  23.705
1513.13  38.589  23.674
1513.63  38.589  23.643
1514.13  38.653  23.674
1514.63  38.589  23.674
1515.13  38.653  23.643
1515.63  38.589  23.643
1516.13  38.589  23.674
1516.63  38.653  23.705
1517.13  38.653  23.674
1517.63  38.589  23.643
1518.13  38.525  23.705
1518.63  38.589  23.643
1519.13  38.589  23.674
1519.63  38.589  23.674
1520.13  38.653  23.705
1520.63  38.525  23.674
1521.13  38.589  23.643
1521.63  38.589  23.643
1522.13  38.589  23.674
1522.63  38.589  23.705
1523.13  38.653  23.674
1523.63  38.653  23.643
1524.13  38.589  23.674
1524.63  38.653  23.674
1525.13  38.653  23.674
1525.63  38.653  23.674
1526.13  38.589  23.705
1526.63  38.653  23.674
1527.13  38.717  23.643
1527.63  38.653  23.735
1528.13  38.589  23.674
1528.63  38.589  23.643
1529.13  38.589  23.705
1529.64  38.589  23.643
1530.14  38.589  23.674
1530.64  38.653  23.643
1531.14  38.653  23.705
1531.64  38.589  23.643
1532.14  38.589  23.674
1532.64  38.589  23.674
1533.14  38.717  23.705
1533.64  38.653  23.674
1534.14  38.653  23.643
1534.64  38.653  23.674
1535.14  38.653  23.674
1535.64  38.653  23.643
1536.14  38.653  23.674
1536.64  38.589  23.643
1537.14  38.653  23.674
1537.64  38.653  23.643
1538.14  38.653  23.643
1538.64  38.653  23.674
1539.14  38.589  23.674
1539.64  38.653  23.674
1540.14  38.653  23.705
1540.64  38.653  23.674
1541.14  38.653  23.674
1541.64  38.653  23.674
1542.14  38.653  23.612
1542.64  38.653  23.674
1543.14  38.653  23.705
1543.64  38.717  23.674
1544.14  38.781  23.705
1544.64  38.653  23.705
1545.14  38.653  23.674
1545.64  38.653  23.674
1546.14  38.589  23.674
1546.64  38.717  23.643
1547.14  38.653  23.643
1547.64  38.717  23.674
1548.14  38.653  23.674
1548.64  38.653  23.705
1549.14  38.653  23.674
1549.64  38.717  23.674
1550.14  38.653  23.674
1550.64  38.653  23.705
1551.14  38.717  23.674
1551.64  38.653  23.674
1552.14  38.653  23.674
1552.64  38.653  23.674
1553.14  38.717  23.705
1553.64  38.717  23.643
1554.14  38.653  23.705
1554.64  38.653  23.735
1555.14  38.717  23.674
1555.64  38.589  23.674
1556.14  38.653  23.705
1556.64  38.717  23.674
1557.14  38.717  23.643
1557.64  38.589  23.674
1558.14  38.717  23.674
1558.64  38.653  23.674
1559.14  38.653  23.674
1559.64  38.717  23.705
1560.14  38.717  23.674
1560.64  38.717  23.674
1561.14  38.717  23.674
1561.64  38.717  23.674
1562.14  38.781  23.674
1562.64  38.781  23.674
1563.14  38.653  23.643
1563.64  38.653  23.674
1564.14  38.781  23.705
1564.64  38.717  23.674
1565.14  38.717  23.674
1565.64  38.717  23.674
1566.14  38.717  23.674
1566.64  38.653  23.705
1567.14  38.717  23.674
1567.64  38.653  23.705
1568.14  38.717  23.735
1568.64  38.717  23.674
1569.14  38.717  23.674
1569.64  38.653  23.674
1570.14  38.653  23.705
1570.64  38.717  23.674
1571.14  38.717  23.643
1571.64  38.717  23.705
1572.14  38.653  23.643
1572.64  38.717  23.674
1573.14  38.717  23.705
1573.64  38.717  23.674
1574.14  38.653  23.674
1574.64  38.717  23.674
1575.14  38.717  23.674
1575.64  38.717  23.674
1576.14  38.589  23.705
1576.64  38.717  23.705
1577.14  38.717  23.674
1577.64  38.717  23.674
1578.14  38.717  23.643
1578.64  38.781  23.705
1579.14  38.653  23.705
1579.64  38.717  23.674
1580.14  38.717  23.643
1580.64  38.717  23.674
1581.14  38.781  23.674
1581.64  38.781  23.643
1582.14  38.717  23.705
1582.64  38.653  23.674
1583.14  38.653  23.705
1583.64  38.653  23.674
1584.14  38.717  23.674
1584.64  38.717  23.705
1585.14  38.781  23.705
1585.64  38.781  23.705
1586.14  38.717  23.674
1586.64  38.717  23.674
1587.14  38.717  23.674
1587.64  38.717  23.643
1588.14  38.717  23.674
1588.64  38.717  23.705
1589.14  38.717  23.674
1589.64  38.717  23.674
1590.14  38.653  23.674
1590.64  38.717  23.705
1591.14  38.717  23.705
1591.64  38.717  23.674
1592.14  38.717  23.643
1592.64  38.781  23.705
1593.14  38.781  23.674
1593.64  38.781  23.643
1594.14  38.717  23.705
1594.64  38.909  23.705
1595.14  38.781  23.735
1595.64  38.717  23.674
1596.14  38.717  23.735
1596.64  38.717  23.735
1597.14  38.781  23.674
1597.64  38.845  23.643
1598.14  38.781  23.674
1598.64  38.781  23.705
1599.14  38.717  23.705
1599.64  38.845  23.705
1600.14  38.717  23.705
1600.64  38.781  23.705
1601.14  38.781  23.674
1601.64  38.717  23.705
1602.14  38.781  23.705
1602.64  38.717  23.674
1603.14  38.717  23.797
1603.64  38.781  23.735
1604.14  38.781  23.705
1604.64  38.781  23.705
1605.14  38.845  23.705
1605.64  38.781  23.705
1606.14  38.781  23.705
1606.64  38.717  23.735
1607.14  38.781  23.735
1607.64  38.781  23.705
1608.14  38.781  23.705
1608.64  38.845  23.735
1609.14  38.781  23.674
1609.64  38.781  23.735
1610.14  38.781  23.705
1610.64  38.781  23.705
1611.14  38.717  23.705
1611.64  38.781  23.705
1612.14  38.781  23.674
1612.64  38.781  23.705
1613.14  38.717  23.735
1613.64  38.781  23.705
1614.14  38.781  23.705
1614.64  38.781  23.735
1615.14  38.845  23.705
1615.64  38.781  23.705
1616.14  38.845  23.674
1616.64  38.845  23.735
1617.14  38.717  23.705
1617.64  38.845  23.674
1618.14  38.845  23.705
1618.64  38.781  23.735
1619.14  38.717  23.705
1619.64  38.781  23.705
1620.14  38.845  23.705
1620.64  38.781  23.705
1621.14  38.845  23.674
1621.64  38.781  23.705
1622.14  38.781  23.705
1622.64  38.845  23.674
1623.14  38.781  23.643
1623.64  38.909  23.705
1624.14  38.845  23.705
1624.64  38.781  23.705
1625.14  38.845  23.735
1625.64  38.781  23.705
1626.14  38.845  23.735
1626.64  38.845  23.735
1627.14  38.781  23.705
1627.64  38.781  23.705
1628.14  38.845  23.705
1628.64  38.781  23.705
1629.14  38.781  23.705
1629.64  38.845  23.674
1630.14  38.781  23.674
1630.64  38.845  23.705
1631.14  38.845  23.705
1631.64  38.845  23.705
1632.14  38.845  23.705
1632.64  38.781  23.705
1633.14  38.845  23.705
1633.64  38.781  23.735
1634.14  38.845  23.705
1634.64  38.781  23.705
1635.14  38.909  23.643
1635.64  38.717  23.735
1636.14  38.845  23.674
1636.64  38.909  23.705
1637.14  38.845  23.705
1637.64  38.717  23.705
1638.14  38.845  23.735
1638.64  38.781  23.735
1639.14  38.653  23.674
1639.64  38.845  23.705
1640.14  38.845  23.705
1640.64  38.781  23.705
1641.14  38.845  23.705
1641.64  38.845  23.735
1642.14  38.781  23.705
1642.65  38.845  23.735
1643.15  38.781  23.674
1643.65  38.845  23.735
1644.15  38.781  23.705
1644.65  38.845  23.705
1645.15  38.781  23.705
1645.65  38.845  23.705
1646.15  38.845  23.674
1646.65  38.781  23.735
1647.15  38.845  23.705
1647.65  38.845  23.735
1648.15  38.717  23.674
1648.65  38.781  23.705
1649.15  38.845  23.705
1649.65  38.845  23.705
1650.15  38.845  23.705
1650.65  38.845  23.705
1651.15  38.909  23.674
1651.65  38.909  23.705
1652.15  38.909  23.705
1652.65  38.845  23.735
1653.15  38.845  23.674
1653.65  38.845  23.705
1654.15  38.781  23.735
1654.65  38.845  23.705
1655.15  38.845  23.735
1655.65  38.845  23.705
1656.15  38.845  23.705
1656.65  38.781  23.735
1657.15  38.973  23.735
1657.65  38.973  23.705
1658.15  38.845  23.705
1658.65  38.845  23.735
1659.15  38.845  23.705
1659.65  38.717  23.735
1660.15  38.845  23.705
1660.65  38.781  23.705
1661.15  38.845  23.766
1661.65  38.845  23.674
1662.15  38.845  23.735
1662.65  38.845  23.735
1663.15  38.845  23.705
1663.65  38.909  23.735
1664.15  38.845  23.705
1664.65  38.845  23.735
1665.15  38.845  23.735
1665.65  38.973  23.705
1666.15  38.909  23.705
1666.65  38.845  23.705
1667.15  38.845  23.735
1667.65  38.845  23.705
1668.15  38.845  23.705
1668.65  38.845  23.735
1669.15  38.909  23.735
1669.65  38.909  23.735
1670.15  38.781  23.735
1670.65  38.845  23.705
1671.15  38.973  23.735
1671.65  38.909  23.705
1672.15  38.845  23.705
1672.65  38.781  23.705
1673.15  38.909  23.705
1673.65  38.845  23.735
1674.15  38.909  23.705
1674.65  38.909  23.735
1675.15  38.781  23.735
1675.65  38.973  23.735
1676.15  38.845  23.735
1676.65  38.909  23.735
1677.15  38.845  23.735
1677.65  38.781  23.705
1678.15  38.973  23.735
1678.65  38.909  23.766
1679.15  38.909  23.674
1679.65  38.909  23.674
1680.15  38.909  23.705
1680.65  38.845  23.766
1681.15  38.909  23.674
1681.65  38.845  23.705
1682.15  38.909  23.705
1682.65  38.909  23.735
1683.15  38.845  23.705
1683.65  38.973  23.705
1684.15  38.909  23.735
1684.65  38.781  23.705
1685.15  38.909  23.705
1685.65  38.845  23.705
1686.15  38.909  23.766
1686.65  38.973  23.705
1687.15  38.909  23.674
1687.65  38.909  23.705
1688.15  38.845  23.705
1688.65  38.845  23.735
1689.15  38.909  23.735
1689.65  38.845  23.705
1690.15  38.909  23.705
1690.65  38.909  23.674
1691.15  38.909  23.705
1691.65  38.909  23.766
1692.15  39.101  23.705
1692.65  38.909  23.735
1693.15  38.909  23.766
1693.65  38.909  23.705
1694.15  38.845  23.705
1694.65  38.909  23.766
1695.15  38.909  23.705
1695.65  38.909  23.735
1696.15  38.909  23.735
1696.65  38.973  23.735
1697.15  38.845  23.735
1697.65  38.845  23.735
1698.15  38.909  23.735
1698.65  38.909  23.735
1699.15  38.909  23.705
1699.65  38.973  23.766
1700.15  38.909  23.735
1700.65  38.909  23.735
1701.15  38.909  23.735
1701.65  38.909  23.735
1702.15  38.973  23.735
1702.65  38.845  23.735
1703.15  38.909  23.766
1703.65  38.909  23.705
1704.15  38.973  23.735
1704.65  38.909  23.735
1705.15  38.909  23.705
1705.65  38.909  23.735
1706.15  38.909  23.735
1706.65  38.909  23.705
1707.15  38.973  23.735
1707.65  38.909  23.797
1708.15  38.909  23.735
1708.65  38.973  23.766
1709.15  38.909  23.735
1709.65  38.909  23.735
1710.15  38.909  23.705
1710.65  38.973  23.705
1711.15  38.973  23.735
1711.65  39.037  23.705
1712.15  38.973  23.766
1712.65  38.909  23.705
1713.15  38.845  23.705
1713.65  38.909  23.766
1714.15  38.973  23.735
1714.65  38.909  23.735
1715.15  38.909  23.735
1715.65  38.909  23.735
1716.15  38.973  23.735
1716.65  38.909  23.735
1717.15  38.973  23.766
1717.65  38.973  23.735
1718.15  38.909  23.735
1718.65  38.973  23.705
1719.15  38.973  23.705
1719.65  38.973  23.766
1720.15  38.973  23.735
1720.65  38.909  23.735
1721.15  38.909  23.735
1721.65  38.909  23.735
1722.15  38.845  23.735
1722.65  38.845  23.705
1723.15  38.973  23.705
1723.65  38.909  23.735
1724.15  38.973  23.705
1724.65  38.909  23.735
1725.15  38.845  23.735
1725.65  38.909  23.735
1726.15  38.909  23.735
1726.65  38.973  23.766
1727.15  38.973  23.766
1727.65  39.037  23.797
1728.15  38.973  23.705
1728.65  38.909  23.735
1729.15  39.037  23.766
1729.65  38.973  23.705
1730.15  38.973  23.735
1730.65  38.909  23.735
1731.15  39.037  23.766
1731.65  38.973  23.735
1732.15  39.037  23.735
1732.65  38.909  23.766
1733.15  38.909  23.766
1733.65  38.973  23.735
1734.15  38.909  23.766
1734.65  38.973  23.797
1735.15  38.973  23.735
1735.65  38.909  23.735
1736.15  38.973  23.705
1736.65  39.037  23.735
1737.15  38.973  23.735
1737.65  38.909  23.766
1738.15  38.973  23.735
1738.65  38.973  23.735
1739.15  38.973  23.766
1739.65  38.973  23.797
1740.15  39.037  23.766
1740.65  38.973  23.705
1741.15  39.101  23.797
1741.65  38.973  23.735
1742.15  38.973  23.735
1742.65  39.037  23.735
1743.15  38.973  23.735
1743.65  38.909  23.735
1744.15  38.973  23.735
1744.65  38.973  23.705
1745.15  38.973  23.735
1745.65  38.973  23.735
1746.15  38.845  23.705
1746.65  38.973  23.735
1747.15  38.909  23.735
1747.65  38.973  23.735
1748.15  39.037  23.735
1748.65  38.973  23.766
1749.15  38.973  23.766
1749.65  38.973  23.735
1750.15  38.973  23.766
1750.65  38.973  23.766
1751.15  38.973  23.735
1751.65  39.101  23.735
1752.15  39.037  23.797
1752.65  39.101  23.735
1753.15  38.909  23.735
1753.65  38.973  23.828
1754.15  38.973  23.766
1754.65  38.973  23.797
1755.15  38.973  23.766
1755.66  39.037  23.735
1756.16  39.037  23.735
1756.66  39.037  23.735
1757.16  39.037  23.735
1757.66  39.037  23.766
1758.16  39.037  23.735
1758.66  38.909  23.705
1759.16  38.973  23.766
1759.66  39.037  23.766
1760.16  38.973  23.735
1760.66  38.973  23.735
1761.16  39.101  23.735
1761.66  39.037  23.735
1762.16  39.037  23.766
1762.66  38.973  23.797
1763.16  38.909  23.735
1763.66  39.037  23.735
1764.16  38.973  23.735
1764.66  38.973  23.735
1765.16  39.037  23.674
1765.66  39.037  23.797
1766.16  39.037  23.735
1766.66  38.973  23.735
1767.16  39.037  23.735
1767.66  39.037  23.766
1768.16  39.037  23.735
1768.66  38.973  23.766
1769.16  39.037  23.766
1769.66  39.037  23.766
1770.16  39.037  23.766
1770.66  39.037  23.766
1771.16  39.037  23.735
1771.66  39.037  23.766
1772.16  39.101  23.735
1772.66  39.037  23.766
1773.16  39.037  23.735
1773.66  39.037  23.766
1774.16  39.037  23.735
1774.66  39.037  23.735
1775.16  39.037  23.766
1775.66  39.037  23.766
1776.16  38.973  23.735
1776.66  39.101  23.766
1777.16  39.037  23.766
1777.66  39.037  23.735
1778.16  38.973  23.705
1778.66  39.037  23.766
1779.16  39.101  23.766
1779.66  39.037  23.797
1780.16  38.973  23.735
1780.66  39.101  23.735
1781.16  38.909  23.766
1781.66  39.037  23.735
1782.16  39.037  23.766
1782.66  39.101  23.766
1783.16  38.973  23.797
1783.66  39.037  23.735
1784.16  39.101  23.735
1784.66  39.037  23.766
1785.16  39.037  23.766
1785.66  39.037  23.766
1786.16  39.037  23.828
1786.66  39.101  23.766
1787.16  39.037  23.735
1787.66  38.973  23.766
1788.16  39.037  23.766
1788.66  39.037  23.797
1789.16  39.037  23.766
1789.66  38.973  23.735
1790.16  39.037  23.766
1790.66  39.037  23.705
1791.16  39.037  23.735
1791.66  39.037  23.797
1792.16  39.037  23.766
1792.66  39.037  23.797
1793.16  39.037  23.735
1793.66  39.101  23.797
1794.16  39.037  23.735
1794.66  39.037  23.735
1795.16  39.037  23.766
1795.66  39.101  23.735
1796.16  39.101  23.674
1796.66  38.973  23.643
1797.16  39.037  23.735
1797.66  39.037  23.735
1798.16  39.037  23.735
1798.66  39.037  23.735
1799.16  39.037  23.766
1799.66  39.037  23.735
1800.16  38.973  23.735
1800.66  39.037  23.766
1801.16  39.101  23.705
1801.66  39.037  23.797
1802.16  39.037  23.766
1802.66  39.101  23.735
1803.16  39.037  23.735
1803.66  39.101  23.766
1804.16  39.037  23.735
1804.66  39.037  23.766
1805.16  39.101  23.735
1805.66  39.101  23.766
1806.16  39.037  23.828
1806.66  39.165  23.766
1807.16  39.101  23.766
1807.66  39.101  23.766
1808.16  39.037  23.766
1808.66  39.037  23.735
1809.16  39.037  23.766
1809.66  39.101  23.766
1810.16  39.101  23.766
1810.66  39.101  23.735
1811.16  39.101  23.735
1811.66  39.101  23.766
1812.16  39.037  23.766
1812.66  39.101  23.766
1813.16  39.101  23.766
1813.66  39.037  23.766
1814.16  39.101  23.766
1814.66  39.165  23.766
1815.16  39.101  23.735
1815.66  39.037  23.766
1816.16  39.037  23.766
1816.66  39.101  23.766
1817.16  39.037  23.766
1817.66  39.101  23.766
1818.16  39.101  23.766
1818.66  39.101  23.766
1819.16  39.165  23.766
1819.66  39.101  23.766
1820.16  39.101  23.766
1820.66  39.101  23.766
1821.16  39.101  23.766
1821.66  39.229  23.766
1822.16  39.101  23.766
1822.66  39.101  23.735
1823.16  39.101  23.766
1823.66  39.101  23.735
1824.16  39.101  23.797
1824.66  39.101  23.766
1825.16  39.101  23.797
1825.66  39.101  23.766
1826.16  39.101  23.705
1826.66  39.037  23.797
1827.16  39.037  23.643
1827.66  39.165  23.859
1828.16  39.101  23.766
1828.66  39.037  23.766
1829.16  39.101  23.766
1829.66  39.037  23.766
1830.16  39.037  23.766
1830.66  39.165  23.735
1831.16  39.101  23.797
1831.66  39.101  23.766
1832.16  39.101  23.797
1832.66  39.037  23.766
1833.16  39.101  23.828
1833.66  39.037  23.766
1834.16  39.101  23.766
1834.66  39.101  23.766
1835.16  39.101  23.766
1835.66  39.101  23.797
1836.16  39.101  23.766
1836.66  39.101  23.735
1837.16  39.101  23.735
1837.66  39.165  23.797
1838.16  39.101  23.766
1838.66  39.037  23.766
1839.16  39.037  23.735
1839.66  39.165  23.766
1840.16  39.165  23.797
1840.66  39.165  23.766
1841.16  39.101  23.766
1841.66  39.101  23.797
1842.16  39.101  23.797
1842.66  39.101  23.797
1843.16  39.101  23.735
1843.66  39.101  23.766
1844.16  39.165  23.828
1844.66  39.165  23.766
1845.16  39.165  23.766
1845.66  39.101  23.797
1846.16  39.165  23.797
1846.66  39.165  23.735
1847.16  39.229  23.766
1847.66  39.165  23.766
1848.16  39.165  23.766
1848.66  39.101  23.797
1849.16  39.101  23.735
1849.66  39.101  23.766
1850.16  39.165  23.735
1850.66  39.101  23.735
1851.16  39.101  23.766
1851.66  39.165  23.766
1852.16  39.101  23.766
1852.66  39.165  23.797
1853.16  39.165  23.797
1853.66  39.037  23.766
1854.16  39.165  23.797
1854.66  39.101  23.797
1855.16  39.165  23.797
1855.66  39.101  23.766
1856.16  39.165  23.766
1856.66  39.165  23.766
1857.16  39.101  23.766
1857.66  39.101  23.797
1858.16  39.229  23.797
1858.66  39.293  23.766
1859.16  39.165  23.828
1859.66  39.293  23.797
1860.16  39.101  23.766
1860.66  39.101  23.797
1861.16  39.101  23.766
1861.66  39.229  23.735
1862.16  39.101  23.735
1862.66  39.165  23.766
1863.16  39.165  23.766
1863.66  39.165  23.797
1864.16  39.229  23.766
1864.66  39.165  23.797
1865.16  39.165  23.797
1865.66  39.229  23.797
1866.16  39.165  23.766
1866.66  39.229  23.766
1867.16  39.101  23.797
1867.66  39.101  23.766
1868.16  39.165  23.797
1868.66  39.101  23.797
1869.17  39.165  23.797
1869.67  39.165  23.766
1870.17  39.101  23.705
1870.67  39.101  23.766
1871.17  39.165  23.766
1871.67  39.165  23.797
1872.17  39.101  23.797
1872.67  39.165  23.735
1873.17  39.101  23.797
1873.67  39.165  23.797
1874.17  39.165  23.766
1874.67  39.229  23.766
1875.17  39.165  23.797
1875.67  39.165  23.766
1876.17  39.229  23.797
1876.67  39.293  23.735
1877.17  39.229  23.766
1877.67  39.101  23.766
1878.17  39.165  23.797
1878.67  39.165  23.797
1879.17  39.165  23.766
1879.67  39.165  23.735
1880.17  39.229  23.797
1880.67  39.165  23.797
1881.17  39.165  23.828
1881.67  39.165  23.797
1882.17  39.165  23.797
1882.67  39.293  23.797
1883.17  39.165  23.766
1883.67  39.037  23.797
1884.17  39.165  23.797
1884.67  39.165  23.797
1885.17  39.165  23.797
1885.67  39.229  23.766
1886.17  39.165  23.797
1886.67  39.229  23.828
1887.17  39.165  23.766
1887.67  39.165  23.797
1888.17  39.165  23.797
1888.67  39.229  23.797
1889.17  39.101  23.797
1889.67  39.165  23.766
1890.17  39.165  23.797
1890.67  39.101  23.766
1891.17  39.165  23.766
1891.67  39.165  23.797
1892.17  39.165  23.797
1892.67  39.229  23.766
1893.17  39.165  23.797
1893.67  39.293  23.797
1894.17  39.165  23.766
1894.67  39.229  23.797
1895.17  39.229  23.735
1895.67  39.229  23.797
1896.17  39.165  23.797
1896.67  39.165  23.797
1897.17  39.165  23.797
1897.67  39.165  23.859
1898.17  39.165  23.797
1898.67  39.293  23.828
1899.17  39.165  23.797
1899.67  39.165  23.797
1900.17  39.229  23.828
1900.67  39.229  23.797
1901.17  39.229  23.766
1901.67  39.229  23.797
1902.17  39.165  23.797
1902.67  39.229  23.797
1903.17  39.165  23.797
1903.67  39.101  23.797
1904.17  39.229  23.797
1904.67  39.165  23.797
1905.17  39.229  23.797
1905.67  39.229  23.766
1906.17  39.229  23.735
1906.67  39.229  23.797
1907.17  39.229  23.797
1907.67  39.229  23.797
1908.17  39.165  23.797
1908.67  39.229  23.828
1909.17  39.229  23.797
1909.67  39.229  23.766
1910.17  39.229  23.797
1910.67  39.229  23.797
1911.17  39.229  23.766
1911.67  39.229  23.797
1912.17  39.229  23.766
1912.67  39.229  23.797
1913.17  39.229  23.797
1913.67  39.229  23.797
1914.17  39.229  23.766
1914.67  39.229  23.797
1915.17  39.165  23.797
1915.67  39.229  23.797
1916.17  39.229  23.735
1916.67  39.229  23.797
1917.17  39.229  23.797
1917.67  39.229  23.828
1918.17  39.229  23.797
1918.67  39.165  23.828
1919.17  39.229  23.797
1919.67  39.229  23.828
1920.17  39.229  23.797
1920.67  39.229  23.828
1921.17  39.293  23.828
1921.67  39.165  23.828
1922.17  39.229  23.797
1922.67  39.293  23.766
1923.17  39.293  23.797
1923.67  39.293  23.797
1924.17  39.229  23.828
1924.67  39.229  23.828
1925.17  39.165  23.828
1925.67  39.293  23.766
1926.17  39.165  23.828
1926.67  39.101  23.797
1927.17  39.165  23.797
1927.67  39.165  23.797
1928.17  39.357  23.828
1928.67  39.293  23.766
1929.17  39.229  23.797
1929.67  39.293  23.766
1930.17  39.229  23.828
1930.67  39.229  23.797
1931.17  39.229  23.859
1931.67  39.165  23.797
1932.17  39.229  23.828
1932.67  39.293  23.766
1933.17  39.229  23.828
1933.67  39.293  23.828
1934.17  39.229  23.797
1934.67  39.229  23.766
1935.17  39.229  23.797
1935.67  39.229  23.797
1936.17  39.229  23.797
1936.67  39.293  23.859
1937.17  39.229  23.828
1937.67  39.229  23.797
1938.17  39.229  23.766
1938.67  39.229  23.797
1939.17  39.229  23.797
1939.67  39.229  23.828
1940.17  39.229  23.797
1940.67  39.229  23.828
1941.17  39.229  23.828
1941.67  39.229  23.797
1942.17  39.229  23.797
1942.67  39.293  23.828
1943.17  39.293  23.828
1943.67  39.293  23.797
1944.17  39.165  23.797
1944.67  39.165  23.797
1945.17  39.229  23.797
1945.67  39.229  23.797
1946.17  39.293  23.828
1946.67  39.293  23.828
1947.17  39.229  23.797
1947.67  39.165  23.828
1948.17  39.229  23.828
1948.67  39.293  23.828
1949.17  39.293  23.797
1949.67  39.229  23.766
1950.17  39.229  23.828
1950.67  39.229  23.828
1951.17  39.293  23.797
1951.67  39.229  23.797
1952.17  39.229  23.828
1952.67  39.229  23.828
1953.17  39.293  23.797
1953.67  39.229  23.797
1954.17  39.293  23.797
1954.67  39.293  23.797
1955.17  39.293  23.797
1955.67  39.293  23.828
1956.17  39.229  23.828
1956.67  39.357  23.828
1957.17  39.293  23.797
1957.67  39.421  23.828
1958.17  39.293  23.797
1958.67  39.293  23.797
1959.17  39.293  23.828
1959.67  39.293  23.797
1960.17  39.293  23.797
1960.67  39.293  23.797
1961.17  39.293  23.828
1961.67  39.357  23.828
1962.17  39.229  23.797
1962.67  39.229  23.828
1963.17  39.293  23.797
1963.67  39.229  23.828
1964.17  39.293  23.797
1964.67  39.293  23.766
1965.17  39.293  23.797
1965.67  39.293  23.828
1966.17  39.293  23.828
1966.67  39.293  23.797
1967.17  39.293  23.766
1967.67  39.293  23.859
1968.17  39.357  23.828
1968.67  39.293  23.735
1969.17  39.229  23.828
1969.67  39.293  23.766
1970.17  39.293  23.828
1970.67  39.229  23.797
1971.17  39.293  23.797
1971.67  39.293  23.828
1972.17  39.357  23.828
1972.67  39.229  23.797
1973.17  39.229  23.797
1973.67  39.229  23.797
1974.17  39.293  23.797
1974.67  39.293  23.828
1975.17  39.293  23.859
1975.67  39.293  23.766
1976.17  39.293  23.828
1976.67  39.165  23.797
1977.17  39.229  23.797
1977.67  39.293  23.797
1978.17  39.357  23.797
1978.67  39.357  23.828
1979.17  39.293  23.766
1979.67  39.357  23.828
1980.17  39.293  23.797
1980.67  39.293  23.797
1981.17  39.357  23.828
1981.67  39.293  23.797
1982.18  39.293  23.828
1982.68  39.293  23.828
1983.18  39.357  23.828
1983.68  39.229  23.859
1984.18  39.357  23.797
1984.68  39.293  23.828
1985.18  39.293  23.828
1985.68  39.293  23.828
1986.18  39.293  23.797
1986.68  39.357  23.828
1987.18  39.357  23.828
1987.68  39.293  23.797
1988.18  39.293  23.797
1988.68  39.293  23.828
1989.18  39.293  23.797
1989.68  39.357  23.797
1990.18  39.357  23.797
1990.68  39.357  23.797
1991.18  39.229  23.828
1991.68  39.357  23.859
1992.18  39.293  23.828
1992.68  39.293  23.797
1993.18  39.293  23.828
1993.68  39.293  23.828
1994.18  39.293  23.828
1994.68  39.357  23.828
1995.18  39.357  23.797
1995.68  39.485  23.828
1996.18  39.293  23.797
1996.68  39.165  23.828
1997.18  39.357  23.797
1997.68  39.229  23.859
1998.18  39.229  23.797
1998.68  39.421  23.797
1999.18  39.229  23.797
1999.68  39.293  23.828
2000.18  39.357  23.828
2000.68  39.421  23.797
2001.18  39.293  23.828
2001.68  39.293  23.828
2002.18  39.357  23.828
2002.68  39.357  23.828
2003.18  39.357  23.828
2003.68  39.357  23.920
2004.18  39.357  23.828
2004.68  39.293  23.828
2005.18  39.293  23.828
2005.68  39.293  23.828
2006.18  39.293  23.828
2006.68  39.357  23.828
2007.18  39.357  23.828
2007.68  39.357  23.797
2008.18  39.357  23.828
2008.68  39.357  23.766
2009.18  39.293  23.828
2009.68  39.293  23.828
2010.18  39.357  23.828
2010.68  39.293  23.797
2011.18  39.293  23.828
2011.68  39.421  23.797
2012.18  39.421  23.828
2012.68  39.229  23.859
2013.18  39.293  23.797
2013.68  39.293  23.797
2014.18  39.293  23.797
2014.68  39.293  23.828
2015.18  39.421  23.828
2015.68  39.293  23.797
2016.18  39.357  23.828
2016.68  39.293  23.828
2017.18  39.293  23.859
2017.68  39.293  23.828
2018.18  39.293  23.828
2018.68  39.293  23.828
2019.18  39.421  23.859
2019.68  39.357  23.828
2020.18  39.293  23.797
2020.68  39.357  23.828
2021.18  39.357  23.828
2021.68  39.357  23.859
2022.18  39.357  23.828
2022.68  39.357  23.828
2023.18  39.357  23.859
2023.68  39.293  23.828
2024.18  39.293  23.889
2024.68  39.357  23.828
2025.18  39.357  23.828
2025.68  39.357  23.859
2026.18  39.293  23.828
2026.68  39.293  23.828
2027.18  39.357  23.889
2027.68  39.357  23.889
2028.18  39.357  23.797
2028.68  39.357  23.828
2029.18  39.293  23.797
2029.68  39.357  23.859
2030.18  39.357  23.828
2030.68  39.357  23.828
2031.18  39.357  23.828
2031.68  39.357  23.797
2032.18  39.293  23.828
2032.68  39.293  23.859
2033.18  39.421  23.828
2033.68  39.357  23.828
2034.18  39.357  23.859
2034.68  39.357  23.859
2035.18  39.357  23.859
2035.68  39.293  23.859
2036.18  39.357  23.859
2036.68  39.357  23.859
2037.18  39.357  23.828
2037.68  39.293  23.797
2038.18  39.357  23.859
2038.68  39.357  23.828
2039.18  39.421  23.828
2039.68  39.357  23.828
2040.18  39.421  23.828
2040.68  39.421  23.828
2041.18  39.357  23.828
2041.68  39.357  23.828
2042.18  39.357  23.828
2042.68  39.293  23.828
2043.18  39.357  23.828
2043.68  39.293  23.828
2044.18  39.357  23.828
2044.68  39.357  23.828
2045.18  39.293  23.828
2045.68  39.357  23.859
2046.18  39.357  23.828
2046.68  39.293  23.859
2047.18  39.357  23.828
2047.68  39.357  23.828
2048.18  39.293  23.828
2048.68  39.357  23.828
2049.18  39.421  23.859
2049.68  39.421  23.859
2050.18  39.421  23.828
2050.68  39.421  23.828
2051.18  39.357  23.797
2051.68  39.357  23.859
2052.18  39.357  23.828
2052.68  39.485  23.828
2053.18  39.357  23.859
2053.68  39.293  23.828
2054.18  39.421  23.859
2054.68  39.357  23.828
2055.18  39.357  23.859
2055.68  39.357  23.828
2056.18  39.421  23.859
2056.68  39.293  23.859
2057.18  39.421  23.828
2057.68  39.293  23.797
2058.18  39.421  23.859
2058.68  39.357  23.828
2059.18  39.357  23.828
2059.68  39.357  23.828
2060.18  39.357  23.828
2060.68  39.485  23.797
2061.18  39.485  23.828
2061.68  39.485  23.859
2062.18  39.421  23.859
2062.68  39.357  23.828
2063.18  39.357  23.828
2063.68  39.421  23.889
2064.18  39.421  23.828
2064.68  39.357  23.828
2065.18  39.229  23.859
2065.68  39.357  23.797
2066.18  39.421  23.828
2066.68  39.357  23.859
2067.18  39.485  23.889
2067.68  39.485  23.859
2068.18  39.421  23.889
2068.68  39.421  23.828
2069.18  39.357  23.828
2069.68  39.357  23.889
2070.18  39.421  23.828
2070.68  39.357  23.828
2071.18  39.357  23.859
2071.68  39.421  23.859
2072.18  39.421  23.828
2072.68  39.421  23.828
2073.18  39.485  23.859
2073.68  39.421  23.828
2074.18  39.421  23.889
2074.68  39.421  23.859
2075.18  39.293  23.828
2075.68  39.293  23.828
2076.18  39.421  23.828
2076.68  39.485  23.828
2077.18  39.357  23.828
2077.68  39.357  23.859
2078.18  39.357  23.828
2078.68  39.421  23.828
2079.18  39.357  23.828
2079.68  39.357  23.889
2080.18  39.357  23.859
2080.68  39.357  23.828
2081.18  39.421  23.859
2081.68  39.421  23.859
2082.18  39.421  23.859
2082.68  39.357  23.828
2083.18  39.421  23.828
2083.68  39.421  23.797
2084.18  39.421  23.797
2084.68  39.357  23.828
2085.18  39.485  23.889
2085.68  39.421  23.859
2086.18  39.421  23.859
2086.68  39.421  23.828
2087.18  39.485  23.859
2087.68  39.421  23.859
2088.18  39.421  23.828
2088.68  39.421  23.828
2089.18  39.357  23.828
2089.68  39.485  23.859
2090.18  39.421  23.859
2090.68  39.421  23.889
2091.18  39.421  23.859
2091.68  39.421  23.859
2092.18  39.421  23.859
2092.68  39.421  23.859
2093.18  39.357  23.859
2093.68  39.421  23.859
2094.18  39.421  23.889
2094.68  39.421  23.889
2095.19  39.357  23.859
2095.69  39.421  23.859
2096.19  39.357  23.889
2096.69  39.421  23.889
2097.19  39.421  23.889
2097.69  39.421  23.889
2098.19  39.421  23.828
2098.69  39.421  23.889
2099.19  39.485  23.859
2099.69  39.357  23.859
2100.19  39.421  23.828
2100.69  39.421  23.828
2101.19  39.485  23.828
2101.69  39.357  23.859
2102.19  39.421  23.859
2102.69  39.421  23.859
2103.19  39.421  23.859
2103.69  39.485  23.828
2104.19  39.357  23.859
2104.69  39.421  23.797
2105.19  39.357  23.859
2105.69  39.485  23.797
2106.19  39.421  23.859
2106.69  39.485  23.859
2107.19  39.421  23.859
2107.69  39.421  23.859
2108.19  39.229  23.859
2108.69  39.421  23.828
2109.19  39.421  23.859
2109.69  39.421  23.920
2110.19  39.485  23.859
2110.69  39.485  23.859
2111.19  39.421  23.889
2111.69  39.421  23.859
2112.19  39.485  23.859
2112.69  39.485  23.859
2113.19  39.421  23.889
2113.69  39.485  23.859
2114.19  39.421  23.859
2114.69  39.485  23.889
2115.19  39.421  23.859
2115.69  39.485  23.859
2116.19  39.485  23.828
2116.69  39.485  23.859
2117.19  39.485  23.859
2117.69  39.421  23.859
2118.19  39.485  23.859
2118.69  39.357  23.828
2119.19  39.421  23.828
2119.69  39.485  23.889
2120.19  39.421  23.889
2120.69  39.421  23.859
2121.19  39.421  23.889
2121.69  39.485  23.859
2122.19  39.485  23.859
2122.69  39.421  23.859
2123.19  39.485  23.859
2123.69  39.485  23.859
2124.19  39.293  23.828
2124.69  39.549  23.859
2125.19  39.421  23.828
2125.69  39.357  23.797
2126.19  39.485  23.859
2126.69  39.485  23.889
2127.19  39.485  23.859
2127.69  39.485  23.859
2128.19  39.485  23.859
2128.69  39.549  23.859
2129.19  39.357  23.889
2129.69  39.485  23.859
2130.19  39.421  23.859
2130.69  39.421  23.920
2131.19  39.485  23.859
2131.69  39.485  23.859
2132.19  39.421  23.828
2132.69  39.485  23.859
2133.19  39.421  23.828
2133.69  39.485  23.859
2134.19  39.421  23.859
2134.69  39.421  23.889
2135.19  39.421  23.889
2135.69  39.421  23.859
2136.19  39.421  23.828
2136.69  39.421  23.859
2137.19  39.485  23.859
2137.69  39.421  23.859
2138.19  39.485  23.859
2138.69  39.485  23.859
2139.19  39.421  23.859
2139.69  39.485  23.859
2140.19  39.485  23.889
2140.69  39.549  23.859
2141.19  39.421  23.828
2141.69  39.485  23.859
2142.19  39.421  23.859
2142.69  39.421  23.859
2143.19  39.485  23.889
2143.69  39.485  23.859
2144.19  39.485  23.889
2144.69  39.485  23.859
2145.19  39.421  23.859
2145.69  39.549  23.889
2146.19  39.485  23.889
2146.69  39.485  23.859
2147.19  39.485  23.889
2147.69  39.549  23.920
2148.19  39.485  23.859
2148.69  39.485  23.859
2149.19  39.485  23.889
2149.69  39.485  23.951
2150.19  39.485  23.889
2150.69  39.485  23.859
2151.19  39.485  23.889
2151.69  39.485  23.859
2152.19  39.485  23.859
2152.69  39.485  23.889
2153.19  39.421  23.859
2153.69  39.549  23.889
2154.19  39.549  23.889
2154.69  39.549  23.889
2155.19  39.549  23.889
2155.69  39.549  23.889
2156.19  39.549  23.859
2156.69  39.549  23.859
2157.19  39.485  23.828
2157.69  39.485  23.859
2158.19  39.613  23.859
2158.69  39.485  23.889
2159.19  39.485  23.889
2159.69  39.485  23.828
2160.19  39.421  23.797
2160.69  39.485  23.859
2161.19  39.485  23.859
2161.69  39.549  23.889
2162.19  39.485  23.920
2162.69  39.421  23.859
2163.19  39.485  23.859
2163.69  39.357  23.889
2164.19  39.549  23.859
2164.69  39.485  23.797
2165.19  39.485  23.889
2165.69  39.357  23.859
2166.19  39.549  23.859
2166.69  39.485  23.889
2167.19  39.549  23.889
2167.69  39.485  23.889
2168.19  39.485  23.889
2168.69  39.549  23.859
2169.19  39.485  23.859
2169.69  39.485  23.889
2170.19  39.485  23.859
2170.69  39.485  23.859
2171.19  39.549  23.889
2171.69  39.549  23.859
2172.19  39.485  23.889
2172.69  39.485  23.889
2173.19  39.485  23.859
2173.69  39.485  23.889
2174.19  39.549  23.859
2174.69  39.613  23.889
2175.19  39.485  23.889
2175.69  39.613  23.889
2176.19  39.421  23.859
2176.69  39.485  23.889
2177.19  39.485  23.859
2177.69  39.485  23.828
2178.19  39.549  23.859
2178.69  39.485  23.828
2179.19  39.485  23.889
2179.69  39.485  23.889
2180.19  39.421  23.859
2180.69  39.485  23.859
2181.19  39.485  23.859
2181.69  39.549  23.859
2182.19  39.421  23.859
2182.69  39.485  23.859
2183.19  39.549  23.859
2183.69  39.485  23.859
2184.19  39.549  23.889
2184.69  39.485  23.889
2185.19  39.549  23.859
2185.69  39.549  23.889
2186.19  39.485  23.889
2186.69  39.549  23.889
2187.19  39.485  23.859
2187.69  39.549  23.889
2188.19  39.485  23.859
2188.69  39.485  23.859
2189.19  39.485  23.889
2189.69  39.613  23.859
2190.19  39.549  23.859
2190.69  39.549  23.889
2191.19  39.485  23.889
2191.69  39.485  23.920
2192.19  39.485  23.828
2192.69  39.421  23.859
2193.19  39.549  23.859
2193.69  39.613  23.889
2194.19  39.485  23.859
2194.69  39.549  23.920
2195.19  39.549  23.889
2195.69  39.549  23.889
2196.19  39.549  23.920
2196.69  39.549  23.889
2197.19  39.485  23.859
2197.70  39.485  23.859
2198.20  39.613  23.859
2198.70  39.485  23.889
2199.20  39.613  23.859
2199.70  39.549  23.889
2200.20  39.549  23.889
2200.70  39.549  23.889
2201.20  39.549  23.889
2201.70  39.485  23.859
2202.20  39.549  23.859
2202.70  39.549  23.889
2203.20  39.549  23.859
2203.70  39.549  23.889
2204.20  39.549  23.889
2204.70  39.485  23.859
2205.20  39.613  23.889
2205.70  39.677  23.889
2206.20  39.549  23.859
2206.70  39.549  23.951
2207.20  39.485  23.859
2207.70  39.549  23.859
2208.20  39.549  23.889
2208.70  39.549  23.859
2209.20  39.549  23.889
2209.70  39.549  23.889
2210.20  39.485  23.889
2210.70  39.421  23.889
2211.20  39.549  23.859
2211.70  39.613  23.889
2212.20  39.549  23.889
2212.70  39.549  23.889
2213.20  39.613  23.889
2213.70  39.485  23.889
2214.20  39.549  23.889
2214.70  39.549  23.889
2215.20  39.549  23.889
2215.70  39.549  23.889
2216.20  39.485  23.920
2216.70  39.549  23.889
2217.20  39.485  23.797
2217.70  39.613  23.889
2218.20  39.549  23.889
2218.70  39.549  23.889
2219.20  39.613  23.889
2219.70  39.549  23.889
2220.20  39.549  23.889
2220.70  39.549  23.889
2221.20  39.613  23.889
2221.70  39.677  23.920
2222.20  39.549  23.920
2222.70  39.549  23.889
2223.20  39.549  23.889
2223.70  39.549  23.920
2224.20  39.613  23.889
2224.70  39.549  23.889
2225.20  39.549  23.920
2225.70  39.613  23.859
2226.20  39.549  23.889
2226.70  39.549  23.889
2227.20  39.549  23.889
2227.70  39.485  23.889
2228.20  39.485  23.889
2228.70  39.549  23.920
2229.20  39.485  23.889
2229.70  39.613  23.889
2230.20  39.677  23.951
2230.70  39.613  23.889
2231.20  39.549  23.920
2231.70  39.613  23.889
2232.20  39.549  23.920
2232.70  39.549  23.889
2233.20  39.549  23.859
2233.70  39.613  23.889
2234.20  39.549  23.889
2234.70  39.549  23.889
2235.20  39.549  23.889
2235.70  39.485  23.889
2236.20  39.549  23.859
2236.70  39.613  23.920
2237.20  39.613  23.889
2237.70  39.613  23.828
2238.20  39.549  23.859
2238.70  39.549  23.889
2239.20  39.613  23.859
2239.70  39.613  23.889
2240.20  39.549  23.920
2240.70  39.549  23.889
2241.20  39.677  23.889
2241.70  39.549  23.889
2242.20  39.549  23.889
2242.70  39.677  23.889
2243.20  39.549  23.859
2243.70  39.485  23.889
2244.20  39.549  23.889
2244.70  39.613  23.889
2245.20  39.549  23.859
2245.70  39.549  23.889
2246.20  39.549  23.859
2246.70  39.549  23.889
2247.20  39.613  23.889
2247.70  39.549  23.889
2248.20  39.549  23.889
2248.70  39.613  23.920
2249.20  39.549  23.889
2249.70  39.613  23.828
2250.20  39.549  23.920
2250.70  39.549  23.859
2251.20  39.549  23.920
2251.70  39.549  23.920
2252.20  39.549  23.889
2252.70  39.485  23.920
2253.20  39.549  23.889
2253.70  39.677  23.889
2254.20  39.613  23.889
2254.70  39.613  23.920
2255.20  39.613  23.828
2255.70  39.613  23.889
2256.20  39.613  23.920
2256.70  39.613  23.920
2257.20  39.549  23.889
2257.70  39.613  23.889
2258.20  39.613  23.920
2258.70  39.549  23.889
2259.20  39.677  23.920
2259.70  39.549  23.920
2260.20  39.613  23.889
2260.70  39.613  23.889
2261.20  39.549  23.889
2261.70  39.613  23.889
2262.20  39.613  23.889
2262.70  39.677  23.889
2263.20  39.549  23.951
2263.70  39.613  23.920
2264.20  39.549  23.828
2264.70  39.613  23.920
2265.20  39.549  23.951
2265.70  39.613  23.889
2266.20  39.613  23.889
2266.70  39.613  23.920
2267.20  39.613  23.920
2267.70  39.613  23.828
2268.20  39.613  23.920
2268.70  39.741  23.889
2269.20  39.613  23.920
2269.70  39.613  23.889
2270.20  39.613  23.889
2270.70  39.613  23.920
2271.20  39.613  23.920
2271.70  39.613  23.920
2272.20  39.613  23.951
2272.70  39.613  23.889
2273.20  39.613  23.889
2273.70  39.613  23.920
2274.20  39.549  23.920
2274.70  39.741  23.889
2275.20  39.485  23.920
2275.70  39.613  23.920
2276.20  39.677  23.889
2276.70  39.613  23.920
2277.20  39.613  23.889
2277.70  39.485  23.889
2278.20  39.613  23.951
2278.70  39.613  23.859
2279.20  39.677  23.920
2279.70  39.613  23.889
2280.20  39.613  23.982
2280.70  39.613  23.889
2281.20  39.613  23.889
2281.70  39.613  23.889
2282.20  39.613  23.889
2282.70  39.549  23.889
2283.20  39.613  23.889
2283.70  39.549  23.889
2284.20  39.613  23.889
2284.70  39.613  23.889
2285.20  39.677  23.951
2285.70  39.613  23.859
2286.20  39.677  23.920
2286.70  39.613  23.951
2287.20  39.549  23.920
2287.70  39.677  23.951
2288.20  39.549  23.920
2288.70  39.677  23.951
2289.20  39.613  23.920
2289.70  39.613  23.920
2290.20  39.677  23.889
2290.70  39.613  23.889
2291.20  39.613  23.889
2291.70  39.613  23.889
2292.20  39.613  23.889
2292.70  39.613  23.920
2293.20  39.613  23.889
2293.70  39.677  23.951
2294.20  39.677  23.889
2294.70  39.613  23.920
2295.20  39.613  23.951
2295.70  39.613  23.889
2296.20  39.677  23.982
2296.70  39.613  23.920
2297.20  39.677  23.920
2297.70  39.613  23.920
2298.20  39.677  23.920
2298.70  39.613  23.951
2299.20  39.613  23.920
2299.70  39.613  23.920
2300.20  39.613  23.920
2300.70  39.613  23.920
2301.20  39.677  23.889
2301.70  39.549  23.920
2302.20  39.613  23.982
2302.70  39.613  23.920
2303.20  39.677  23.889
2303.70  39.613  23.920
2304.20  39.613  23.920
2304.70  39.613  23.920
2305.20  39.677  23.920
2305.70  39.613  23.889
2306.20  39.613  23.920
2306.70  39.613  23.889
2307.20  39.677  23.889
2307.70  39.613  23.920
2308.20  39.677  23.920
2308.70  39.613  23.920
2309.20  39.677  23.889
2309.70  39.677  23.920
2310.20  39.549  23.951
2310.70  39.613  23.920
2311.20  39.613  23.889
2311.70  39.677  23.889
2312.20  39.549  23.920
2312.70  39.613  23.920
2313.20  39.613  23.889
2313.70  39.677  23.920
2314.20  39.613  23.889
2314.70  39.613  23.951
2315.20  39.613  23.920
2315.70  39.613  23.920
2316.20  39.677  23.951
2316.70  39.613  23.920
2317.20  39.613  23.951
2317.70  39.677  23.920
2318.20  39.613  23.889
2318.70  39.613  23.920
2319.20  39.677  23.920
2319.70  39.677  23.951
2320.20  39.677  23.859
2320.70  39.677  23.920
2321.20  39.741  23.951
2321.71  39.677  23.920
2322.21  39.677  23.920
2322.71  39.613  23.920
2323.21  39.677  23.859
2323.71  39.677  23.889
2324.21  39.677  23.920
2324.71  39.677  23.920
2325.21  39.677  23.920
2325.71  39.741  23.889
2326.21  39.677  23.920
2326.71  39.613  23.889
2327.21  39.613  23.889
2327.71  39.613  23.889
2328.21  39.677  23.920
2328.71  39.613  23.889
2329.21  39.613  23.889
2329.71  39.613  23.920
2330.21  39.677  23.920
2330.71  39.613  23.920
2331.21  39.613  23.889
2331.71  39.741  23.920
2332.21  39.677  23.920
2332.71  39.741  23.889
2333.21  39.677  23.889
2333.71  39.613  23.889
2334.21  39.613  23.920
2334.71  39.613  23.920
2335.21  39.613  23.920
2335.71  39.677  23.982
2336.21  39.677  23.920
2336.71  39.677  23.920
2337.21  39.613  23.920
2337.71  39.613  23.920
2338.21  39.613  23.920
2338.71  39.741  23.920
2339.21  39.677  23.920
2339.71  39.741  23.982
2340.21  39.741  23.951
2340.71  39.741  23.920
2341.21  39.613  23.982
2341.71  39.677  23.920
2342.21  39.613  23.920
2342.71  39.741  23.920
2343.21  39.741  23.920
2343.71  39.677  23.920
2344.21  39.677  23.920
2344.71  39.741  23.951
2345.21  39.677  23.920
2345.71  39.677  23.889
2346.21  39.677  23.920
2346.71  39.677  23.859
2347.21  39.677  23.920
2347.71  39.549  23.889
2348.21  39.677  23.889
2348.71  39.677  23.951
2349.21  39.677  23.889
2349.71  39.677  23.920
2350.21  39.677  23.920
2350.71  39.677  23.889
2351.21  39.677  23.889
2351.71  39.677  23.889
2352.21  39.677  23.951
2352.71  39.741  23.920
2353.21  39.613  23.920
2353.71  39.677  23.920
2354.21  39.677  23.920
2354.71  39.677  23.920
2355.21  39.869  23.920
2355.71  39.677  23.982
2356.21  39.677  23.920
2356.71  39.741  23.920
2357.21  39.677  23.920
2357.71  39.677  23.951
2358.21  39.741  23.920
2358.71  39.933  23.920
2359.21  39.677  23.920
2359.71  39.805  23.920
2360.21  39.741  23.951
2360.71  39.613  23.951
2361.21  39.677  23.920
2361.71  39.741  23.920
2362.21  39.677  23.951
2362.71  39.741  23.920
2363.21  39.677  23.889
2363.71  39.677  23.920
2364.21  39.741  23.920
2364.71  39.677  23.982
2365.21  39.677  23.920
2365.71  39.677  23.889
2366.21  39.677  23.920
2366.71  39.741  23.920
2367.21  39.741  23.920
2367.71  39.677  23.920
2368.21  39.677  23.920
2368.71  39.741  23.920
2369.21  39.741  23.920
2369.71  39.677  23.982
2370.21  39.677  23.920
2370.71  39.677  23.920
2371.21  39.613  23.889
2371.71  39.677  23.920
2372.21  39.677  23.920
2372.71  39.613  23.982
2373.21  39.677  23.920
2373.71  39.741  23.920
2374.21  39.677  23.859
2374.71  39.741  23.889
2375.21  39.677  23.920
2375.71  39.677  23.920
2376.21  39.805  23.920
2376.71  39.677  23.889
2377.21  39.869  23.920
2377.71  39.741  23.920
2378.21  39.677  23.951
2378.71  39.741  23.920
2379.21  39.805  23.920
2379.71  39.741  24.013
2380.21  39.741  23.920
2380.71  39.741  23.920
2381.21  39.741  23.920
2381.71  39.613  23.951
2382.21  39.677  23.920
2382.71  39.613  23.982
2383.21  39.677  23.951
2383.71  39.741  23.982
2384.21  39.741  23.951
2384.71  39.741  23.920
2385.21  39.741  23.951
2385.71  39.741  23.951
2386.21  39.677  23.951
2386.71  39.741  23.951
2387.21  39.741  23.920
2387.71  39.613  23.951
2388.21  39.741  23.951
2388.71  39.805  23.920
2389.21  39.805  23.889
2389.71  39.677  23.951
2390.21  39.741  23.889
2390.71  39.677  23.951
2391.21  39.677  23.920
2391.71  39.741  23.920
2392.21  39.741  23.951
2392.71  39.741  23.951
2393.21  39.741  23.889
2393.71  39.741  23.951
2394.21  39.741  23.982
2394.71  39.613  23.951
2395.21  39.677  23.951
2395.71  39.741  23.951
2396.21  39.677  23.920
2396.71  39.677  23.951
2397.21  39.741  23.920
2397.71  39.677  23.951
2398.21  39.677  23.920
2398.71  39.805  23.951
2399.21  39.677  23.951
2399.71  39.549  23.951
2400.21  39.677  23.951
2400.71  39.677  23.951
2401.21  39.741  23.920
2401.71  39.741  24.013
2402.21  39.741  23.920
2402.71  39.741  23.920
2403.21  39.677  23.951
2403.71  39.741  23.951
2404.21  39.677  23.920
2404.71  39.741  23.920
2405.21  39.741  23.920
2405.71  39.613  23.951
2406.21  39.677  23.951
2406.71  39.613  23.920
2407.21  39.677  23.920
2407.71  39.805  23.951
2408.21  39.741  23.889
2408.71  39.805  23.982
2409.21  39.741  23.982
2409.71  39.741  23.920
2410.21  39.741  23.920
2410.71  39.805  23.982
2411.21  39.805  23.951
2411.71  39.805  23.889
2412.21  39.805  23.920
2412.71  39.805  23.951
2413.21  39.741  23.920
2413.71  39.741  23.920
2414.21  39.677  23.920
2414.71  39.741  23.951
2415.21  39.805  23.920
2415.71  39.741  23.951
2416.21  39.677  23.920
2416.71  39.805  23.951
2417.21  39.741  23.920
2417.71  39.805  23.982
2418.21  39.741  23.920
2418.71  39.741  23.951
2419.21  39.741  23.920
2419.71  39.805  23.951
2420.21  39.741  23.951
2420.71  39.805  23.951
2421.21  39.805  23.920
2421.71  39.741  23.889
2422.21  39.741  23.951
2422.71  39.805  23.951
2423.21  39.741  23.920
2423.72  39.741  23.920
2424.22  39.741  23.951
2424.72  39.741  23.920
2425.22  39.805  23.889
2425.72  39.741  23.920
2426.22  39.741  23.951
2426.72  39.741  23.951
2427.22  39.677  23.951
2427.72  39.741  23.920
2428.22  39.741  23.982
2428.72  39.805  23.889
2429.22  39.741  23.920
2429.72  39.741  23.982
2430.22  39.677  23.920
2430.72  39.741  23.951
2431.22  39.805  23.982
2431.72  39.805  23.951
2432.22  39.741  23.982
2432.72  39.741  23.920
2433.22  39.805  23.920
2433.72  39.741  23.951
2434.22  39.741  23.951
2434.72  39.741  23.920
2435.22  39.741  23.951
2435.72  39.741  23.982
2436.22  39.741  23.951
2436.72  39.741  23.982
2437.22  39.805  23.951
2437.72  39.741  23.951
2438.22  39.805  23.951
2438.72  39.741  23.951
2439.22  39.741  23.920
2439.72  39.805  23.982
2440.22  39.805  23.920
2440.72  39.741  23.920
2441.22  39.869  23.951
2441.72  39.741  24.013
2442.22  39.741  23.982
2442.72  39.741  23.951
2443.22  39.741  23.920
2443.72  39.741  23.951
2444.22  39.741  23.951
2444.72  39.677  23.951
2445.22  39.741  23.982
2445.72  39.805  23.951
2446.22  39.741  23.951
2446.72  39.741  23.951
2447.22  39.741  23.920
2447.72  39.805  23.951
2448.22  39.741  23.982
2448.72  39.805  23.920
2449.22  39.741  23.920
2449.72  39.741  23.920
2450.22  39.741  23.951
2450.72  39.741  23.951
2451.22  39.805  24.043
2451.72  39.741  23.920
2452.22  39.805  23.951
2452.72  39.805  23.951
2453.22  39.805  23.920
2453.72  39.805  23.982
2454.22  39.741  23.982
2454.72  39.805  23.982
2455.22  39.869  23.982
2455.72  39.805  23.951
2456.22  39.805  23.982
2456.72  39.805  23.951
2457.22  39.741  23.951
2457.72  39.805  23.982
2458.22  39.805  23.951
2458.72  39.741  23.920
2459.22  39.869  23.951
2459.72  39.805  23.951
2460.22  39.805  23.951
2460.72  39.805  23.920
2461.22  39.869  23.982
2461.72  39.741  23.951
2462.22  39.805  23.982
2462.72  39.741  23.951
2463.22  39.805  23.951
2463.72  39.741  23.951
2464.22  39.869  23.982
2464.72  39.741  23.920
2465.22  39.805  23.951
2465.72  39.805  23.951
2466.22  39.741  23.951
2466.72  39.869  23.951
2467.22  39.741  23.982
2467.72  39.805  23.982
2468.22  39.805  23.982
2468.72  39.805  23.951
2469.22  39.677  23.951
2469.72  39.805  23.982
2470.22  39.869  23.951
2470.72  39.869  23.920
2471.22  39.741  23.982
2471.72  39.805  23.982
2472.22  39.805  23.920
2472.72  39.741  23.951
2473.22  39.805  23.920
2473.72  39.869  23.920
2474.22  39.805  23.951
2474.72  39.805  23.951
2475.22  39.805  23.951
2475.72  39.741  23.982
2476.22  39.741  23.951
2476.72  39.677  23.951
2477.22  39.805  23.951
2477.72  39.805  23.951
2478.22  39.869  23.889
2478.72  39.805  23.951
2479.22  39.869  23.951
2479.72  39.805  23.951
2480.22  39.805  23.951
2480.72  39.741  23.951
2481.22  39.805  23.982
2481.72  39.741  23.951
2482.22  39.741  23.951
2482.72  39.805  23.982
2483.22  39.805  24.013
2483.72  39.741  23.951
2484.22  39.805  23.982
2484.72  39.805  23.951
2485.22  39.805  24.013
2485.72  39.805  23.982
2486.22  39.869  23.951
2486.72  39.805  23.951
2487.22  39.869  23.982
2487.72  39.869  23.951
2488.22  39.805  23.951
2488.72  39.741  23.920
2489.22  39.741  23.982
2489.72  39.805  23.951
2490.22  39.741  23.951
2490.72  39.741  23.951
2491.22  39.933  23.982
2491.72  39.805  23.951
2492.22  39.869  23.982
2492.72  39.869  23.951
2493.22  39.805  23.982
2493.72  39.869  23.982
2494.22  39.805  23.982
2494.72  39.805  23.982
2495.22  39.805  24.013
2495.72  39.805  23.951
2496.22  39.869  24.013
2496.72  39.805  23.982
2497.22  39.805  23.982
2497.72  39.805  23.951
2498.22  39.805  23.982
2498.72  39.805  23.951
2499.22  39.805  23.982
2499.72  39.741  23.982
2500.22  39.805  23.982
2500.72  39.805  23.982
2501.22  39.677  23.951
2501.72  39.805  23.951
