   2.00  13.746  23.027
   2.50  16.802  23.058
   3.00  16.775  23.058
   3.50  16.775  23.027
   4.00  16.775  23.119
   4.50  16.775  23.058
   5.00  16.723  23.027
   5.50  16.723  23.088
   6.00  16.723  23.088
   6.50  16.723  23.058
   7.00  16.749  23.058
   7.50  16.697  23.088
   8.00  16.671  23.058
   8.50  16.671  23.058
   9.00  16.671  23.058
   9.50  16.645  23.027
  10.00  16.671  23.058
  10.50  16.540  23.058
  11.00  16.697  23.058
  11.50  16.645  23.058
  12.00  16.671  23.027
  12.50  16.697  23.058
  13.00  16.645  23.058
  13.50  16.645  23.058
  14.00  16.671  23.088
  14.50  16.645  23.058
  15.00  16.671  23.027
  15.50  16.645  23.058
  16.00  16.645  23.119
  16.50  16.697  23.088
  17.00  16.645  23.058
  17.50  16.645  23.058
  18.00  16.671  23.058
  18.50  16.671  23.058
  19.00  16.645  23.027
  19.50  16.697  23.027
  20.00  16.645  23.058
  20.50  16.697  23.058
  21.00  16.723  23.058
  21.50  16.697  23.058
  22.00  16.671  23.058
  22.50  16.671  22.996
  23.00  16.697  23.058
  23.50  16.697  23.058
  24.00  16.697  23.088
  24.50  16.723  23.058
  25.00  16.671  23.027
  25.50  16.723  23.058
  26.00  16.697  23.058
  26.50  16.749  23.088
  27.00  16.749  23.027
  27.50  16.567  23.058
  28.00  16.697  23.058
  28.50  16.619  23.058
  29.00  16.775  23.027
  29.50  23.461  23.058
  30.00  23.434  23.058
  30.50  23.461  23.119
  31.00  23.487  23.058
  31.50  23.487  23.088
  32.00  23.513  23.119
  32.50  23.487  23.058
  33.00  23.513  23.058
  33.50  23.539  23.058
  34.00  23.513  23.058
  34.50  23.513  23.058
  35.00  23.565  23.058
  35.50  23.565  23.058
  36.00  23.565  23.088
  36.50  23.591  23.088
  37.00  23.565  23.058
  37.50  23.591  23.088
  38.00  23.643  23.058
  38.50  23.617  23.088
  39.00  23.617  23.058
  39.50  23.643  23.088
  40.00  23.643  23.088
  40.50  23.670  23.058
  41.00  23.696  23.088
  41.50  23.696  23.088
  42.00  23.670  23.088
  42.50  23.696  23.088
  43.00  23.670  23.058
  43.50  23.722  23.088
  44.00  23.696  23.088
  44.50  23.696  23.088
  45.00  23.722  23.058
  45.50  23.722  23.088
  46.00  23.774  23.088
  46.50  23.774  23.088
  47.00  23.774  23.088
  47.51  23.722  23.058
  48.01  23.774  23.088
  48.51  23.800  23.058
  49.01  23.800  23.058
  49.51  23.800  23.058
  50.01  23.826  23.058
  50.51  23.826  23.088
  51.01  23.826  23.058
  51.51  23.826  23.088
  52.01  23.852  23.088
  52.51  23.878  23.058
  53.01  23.852  23.088
  53.51  23.878  23.088
  54.01  23.905  23.088
  54.51  23.878  23.088
  55.01  23.905  23.027
  55.51  23.905  23.119
  56.01  23.905  23.088
  56.51  23.905  23.058
  57.01  23.931  23.088
  57.51  23.931  23.088
  58.01  23.983  23.088
  58.51  23.931  23.088
  59.01  23.957  23.088
  59.51  23.957  23.088
  60.01  24.009  23.088
  60.51  24.009  23.088
  61.01  23.983  23.088
  61.51  23.983  23.058
  62.01  24.009  23.088
  62.51  23.983  23.058
  63.01  24.009  23.119
  63.51  24.035  23.058
  64.01  24.009  23.088
  64.51  24.009  23.058
  65.01  24.061  23.119
  65.51  24.035  23.058
  66.01  24.035  23.088
  66.51  24.061  23.058
  67.01  24.061  23.088
  67.51  24.061  23.058
  68.01  24.061  23.058
  68.51  24.087  23.058
  69.01  24.113  23.058
  69.51  24.113  23.058
  70.01  24.061  23.088
  70.51  24.113  23.088
  71.01  24.140  23.058
  71.51  24.140  23.058
  72.01  24.113  23.088
  72.51  24.140  23.119
  73.01  24.140  23.058
  73.51  24.166  23.058
  74.01  24.166  23.088
  74.51  24.140  23.058
  75.01  24.166  23.088
  75.51  24.166  23.088
  76.01  24.192  23.088
  76.51  24.192  23.058
  77.01  24.192  23.058
  77.51  24.192  23.088
  78.01  24.218  23.119
  78.51  24.192  23.088
  79.01  24.218  23.088
  79.51  24.218  23.058
  80.01  24.244  23.088
  80.51  24.218  23.058
  81.01  24.218  23.088
  81.51  24.296  23.088
  82.01  24.270  23.088
  82.51  24.270  23.088
  83.01  24.270  23.058
  83.51  24.296  23.088
  84.01  24.322  23.058
  84.51  24.270  23.058
  85.01  24.270  23.088
  85.51  24.296  23.119
  86.01  24.322  23.088
  86.51  24.348  23.088
  87.01  24.270  23.058
  87.51  24.348  23.088
  88.01  24.348  23.058
  88.51  24.322  23.058
  89.01  24.348  23.088
  89.51  24.348  23.088
  90.01  24.348  23.088
  90.51  24.348  23.088
  91.01  24.375  23.119
  91.51  24.375  23.058
  92.01  24.401  23.088
  92.51  24.375  23.119
  93.01  24.401  23.088
  93.51  24.401  23.088
  94.01  24.375  23.058
  94.51  24.375  23.088
  95.01  24.401  23.088
  95.51  24.427  23.058
  96.01  24.427  23.088
  96.51  24.427  23.088
  97.01  24.453  23.088
  97.51  24.453  23.088
  98.01  24.453  23.088
  98.51  24.427  23.088
  99.01  24.479  23.027
  99.51  24.453  23.088
 100.01  24.479  23.088
 100.51  24.453  23.088
 101.01  24.479  23.088
 101.51  24.505  23.058
 102.01  24.479  23.119
 102.51  24.505  23.088
 103.01  24.479  23.088
 103.51  24.531  23.088
 104.01  24.505  23.058
 104.51  24.505  23.058
 105.01  24.505  23.058
 105.51  24.531  23.088
 106.01  24.531  23.058
 106.51  24.557  23.088
 107.01  24.531  23.088
 107.51  24.583  23.088
 108.01  24.583  23.058
 108.51  24.531  23.088
 109.01  24.557  23.088
 109.51  24.610  23.150
 110.01  24.583  23.088
 110.51  24.583  23.088
 111.01  24.583  23.088
 111.51  24.583  23.088
 112.01  24.583  23.119
 112.51  24.610  23.027
 113.01  24.610  23.088
 113.51  24.662  23.058
 114.01  24.636  23.088
 114.51  24.610  23.088
 115.01  24.662  23.088
 115.51  24.636  23.088
 116.01  24.636  23.088
 116.51  24.688  23.088
 117.01  24.662  23.088
 117.51  24.662  23.058
 118.01  24.636  23.150
 118.51  24.662  23.088
 119.01  24.662  23.088
 119.51  24.688  23.088
 120.01  24.662  23.027
 120.51  24.662  23.119
 121.01  24.662  23.088
 121.51  24.714  23.058
 122.01  24.688  23.058
 122.51  24.714  23.058
 123.01  24.714  23.088
 123.51  24.714  23.088
 124.01  24.714  23.088
 124.51  24.688  23.088
 125.01  24.714  23.119
 125.51  24.740  23.088
 126.01  24.740  23.119
 126.51  24.740  23.088
 127.01  24.766  23.088
 127.51  24.740  23.088
 128.01  24.766  23.088
 128.51  24.740  23.088
 129.01  24.766  23.088
 129.51  24.740  23.119
 130.01  24.740  23.088
 130.51  24.740  23.088
 131.01  24.766  23.088
 131.51  24.766  23.150
 132.01  24.766  23.088
 132.51  24.792  23.088
 133.01  24.766  23.119
 133.51  24.845  23.088
 134.01  24.819  23.088
 134.51  24.792  23.088
 135.01  24.819  23.088
 135.51  24.845  23.088
 136.01  24.845  23.088
 136.51  24.792  23.088
 137.01  24.819  23.119
 137.51  24.819  23.058
 138.01  24.871  23.088
 138.51  24.845  23.088
 139.01  24.845  23.088
 139.51  24.845  23.088
 140.01  24.871  23.058
 140.51  24.845  23.119
 141.01  24.845  23.027
 141.51  24.871  23.088
 142.01  24.871  23.088
 142.51  24.897  23.088
 143.01  24.897  23.119
 143.51  24.897  23.119
 144.01  24.845  23.088
 144.51  24.897  23.088
 145.01  24.897  23.088
 145.51  24.897  23.058
 146.01  24.897  23.088
 146.51  24.871  23.088
 147.01  24.897  23.119
 147.51  24.923  23.058
 148.01  24.949  23.119
 148.51  24.871  23.088
 149.01  24.897  23.088
 149.51  24.949  23.058
 150.01  24.923  23.058
 150.51  24.923  23.088
 151.01  24.949  23.058
 151.51  24.949  23.088
 152.01  24.949  23.058
 152.51  24.949  23.088
 153.01  24.949  23.088
 153.51  24.949  23.088
 154.01  24.949  23.088
 154.51  24.975  23.088
 155.01  24.975  23.088
 155.51  25.005  23.088
 156.01  25.005  23.088
 156.51  24.975  23.119
 157.01  24.975  23.027
 157.51  24.975  23.088
 158.01  25.222  23.088
 158.51  25.005  23.088
 159.01  25.005  23.119
 159.51  25.005  23.119
 160.01  25.114  23.088
 160.51  25.114  23.088
 161.01  25.114  23.088
 161.51  25.114  23.088
 162.01  25.114  23.088
 162.51  25.114  23.058
 163.01  25.222  23.088
 163.51  25.114  23.058
 164.01  25.438  23.088
 164.51  25.222  23.088
 165.01  25.114  23.088
 165.51  25.222  23.119
 166.01  25.222  23.088
 166.51  25.330  23.088
 167.01  25.222  23.119
 167.51  25.330  23.088
 168.01  25.547  23.088
 168.51  25.330  23.088
 169.01  25.438  23.088
 169.51  25.438  23.119
 170.01  25.438  23.058
 170.51  25.438  23.119
 171.01  25.330  23.119
 171.52  25.438  23.088
 172.02  25.655  23.119
 172.52  25.438  23.088
 173.02  25.547  23.088
 173.52  25.438  23.058
 174.02  25.547  23.088
 174.52  25.547  23.119
 175.02  25.547  23.088
 175.52  25.547  23.088
 176.02  25.547  23.088
 176.52  25.655  23.088
 177.02  25.438  23.119
 177.52  25.655  23.088
 178.02  25.655  23.088
 178.52  25.655  23.088
 179.02  25.655  23.088
 179.52  25.763  23.088
 180.02  25.547  23.088
 180.52  25.547  23.088
 181.02  25.763  23.088
 181.52  25.655  23.088
 182.02  25.655  23.088
 182.52  25.871  23.027
 183.02  25.547  23.088
 183.52  25.871  23.088
 184.02  25.763  23.088
 184.52  25.871  23.058
 185.02  25.763  23.058
 185.52  25.871  23.119
 186.02  25.871  23.150
 186.52  26.088  23.088
 187.02  25.980  23.119
 187.52  25.980  23.088
 188.02  25.980  23.088
 188.52  25.980  23.088
 189.02  25.871  23.119
 189.52  25.871  23.058
 190.02  25.980  23.088
 190.52  25.871  23.058
 191.02  25.980  23.088
 191.52  26.088  23.150
 192.02  26.088  23.119
 192.52  26.088  23.058
 193.02  26.196  23.119
 193.52  26.196  23.088
 194.02  26.196  23.058
 194.52  26.088  23.088
 195.02  26.088  23.088
 195.52  26.088  23.088
 196.02  26.088  23.088
 196.52  26.196  23.150
 197.02  26.304  23.088
 197.52  26.196  23.119
 198.02  26.196  23.119
 198.52  26.304  23.027
 199.02  26.304  23.088
 199.52  26.304  23.088
 200.02  26.196  23.088
 200.52  26.304  23.088
 201.02  26.304  23.088
 201.52  26.304  23.150
 202.02  26.521  23.088
 202.52  26.413  23.088
 203.02  26.413  23.088
 203.52  26.413  23.088
 204.02  26.413  23.058
 204.52  26.304  23.088
 205.02  26.304  23.088
 205.52  26.413  23.058
 206.02  26.413  23.119
 206.52  26.521  23.119
 207.02  26.521  23.119
 207.52  26.413  23.088
 208.02  26.413  23.088
 208.52  26.629  23.119
 209.02  26.521  23.088
 209.52  26.413  23.088
 210.02  26.521  23.088
 210.52  26.629  23.088
 211.02  26.629  23.088
 211.52  26.629  23.088
 212.02  26.629  23.088
 212.52  26.629  23.088
 213.02  26.629  23.088
 213.52  26.737  23.088
 214.02  26.629  23.088
 214.52  26.737  23.119
 215.02  26.737  23.119
 215.52  26.737  23.119
 216.02  26.846  23.088
 216.52  26.954  23.058
 217.02  26.629  23.119
 217.52  26.846  23.088
 218.02  26.737  23.088
 218.52  26.846  23.119
 219.02  26.846  23.088
 219.52  26.737  23.058
 220.02  26.846  23.119
 220.52  26.954  23.088
 221.02  27.062  23.088
 221.52  26.954  23.150
 222.02  26.954  23.088
 222.52  26.846  23.088
 223.02  26.954  23.088
 223.52  27.062  23.088
 224.02  26.954  23.119
 224.52  26.954  23.119
 225.02  27.062  23.119
 225.52  27.062  23.088
 226.02  27.062  23.088
 226.52  27.170  23.088
 227.02  27.062  23.119
 227.52  27.170  23.119
 228.02  27.062  23.088
 228.52  27.170  23.088
 229.02  27.279  23.088
 229.52  27.062  23.119
 230.02  27.062  23.119
 230.52  27.170  23.119
 231.02  27.170  23.088
 231.52  27.062  23.088
 232.02  27.062  23.088
 232.52  27.279  23.088
 233.02  27.170  23.119
 233.52  27.279  23.088
 234.02  27.170  23.088
 234.52  27.170  23.119
 235.02  27.279  23.058
 235.52  27.279  23.088
 236.02  27.170  23.088
 236.52  27.279  23.119
 237.02  27.495  23.119
 237.52  27.279  23.119
 238.02  27.387  23.119
 238.52  27.387  23.088
 239.02  27.279  23.119
 239.52  27.387  23.088
 240.02  27.387  23.088
 240.52  27.387  23.119
 241.02  27.495  23.088
 241.52  27.387  23.088
 242.02  27.495  23.150
 242.52  27.495  23.150
 243.02  27.495  23.088
 243.52  27.603  23.119
 244.02  27.495  23.088
 244.52  27.495  23.088
 245.02  27.603  23.119
 245.52  27.603  23.119
 246.02  27.603  23.150
 246.52  27.712  23.119
 247.02  27.712  23.119
 247.52  27.712  23.088
 248.02  27.603  23.058
 248.52  27.712  23.088
 249.02  27.712  23.088
 249.52  27.712  23.088
 250.02  27.712  23.088
 250.52  27.603  23.088
 251.02  27.712  23.119
 251.52  27.712  23.119
 252.02  27.603  23.119
 252.52  27.712  23.150
 253.02  27.712  23.119
 253.52  27.820  23.119
 254.02  27.820  23.150
 254.52  27.820  23.088
 255.02  27.712  23.119
 255.52  27.820  23.088
 256.02  27.820  23.119
 256.52  27.712  23.119
 257.02  27.820  23.119
 257.52  27.928  23.119
 258.02  27.928  23.119
 258.52  27.820  23.119
 259.02  27.820  23.119
 259.52  27.928  23.119
 260.02  28.036  23.088
 260.52  27.928  23.119
 261.02  27.928  23.119
 261.52  27.928  23.088
 262.02  28.036  23.058
 262.52  27.928  23.119
 263.02  28.036  23.150
 263.52  27.928  23.150
 264.02  28.036  23.119
 264.52  28.036  23.088
 265.02  28.036  23.088
 265.52  28.036  23.119
 266.02  28.036  23.088
 266.52  28.036  23.119
 267.02  28.145  23.119
 267.52  28.145  23.088
 268.02  28.036  23.119
 268.52  28.145  23.150
 269.02  28.145  23.119
 269.52  28.145  23.119
 270.02  28.253  23.119
 270.52  28.145  23.119
 271.02  28.145  23.119
 271.52  28.253  23.119
 272.02  28.036  23.119
 272.52  28.253  23.119
 273.02  28.253  23.119
 273.52  28.145  23.088
 274.02  28.253  23.119
 274.52  28.253  23.088
 275.02  28.253  23.058
 275.52  28.361  23.119
 276.02  28.361  23.119
 276.52  28.253  23.150
 277.02  28.253  23.119
 277.52  28.361  23.119
 278.02  28.253  23.119
 278.52  28.253  23.119
 279.02  28.253  23.119
 279.52  28.361  23.088
 280.02  28.361  23.088
 280.52  28.361  23.119
 281.02  28.469  23.119
 281.52  28.361  23.088
 282.02  28.361  23.119
 282.52  28.469  23.150
 283.02  28.469  23.119
 283.52  28.361  23.088
 284.02  28.469  23.119
 284.52  28.469  23.119
 285.03  28.794  23.119
 285.53  28.469  23.150
 286.03  28.578  23.181
 286.53  28.578  23.088
 287.03  28.578  23.088
 287.53  28.469  23.119
 288.03  28.578  23.088
 288.53  28.469  23.058
 289.03  28.469  23.119
 289.53  28.578  23.088
 290.03  28.578  23.119
 290.53  28.578  23.119
 291.03  28.686  23.088
 291.53  28.578  23.088
 292.03  28.686  23.119
 292.53  28.686  23.119
 293.03  28.686  23.119
 293.53  28.578  23.119
 294.03  28.578  23.119
 294.53  28.794  23.119
 295.03  28.794  23.119
 295.53  28.686  23.119
 296.03  28.794  23.150
 296.53  28.902  23.119
 297.03  28.794  23.088
 297.53  29.011  23.119
 298.03  28.794  23.119
 298.53  28.902  23.058
 299.03  28.794  23.119
 299.53  28.794  23.119
 300.03  28.902  23.150
 300.53  28.902  23.119
 301.03  28.902  23.119
 301.53  28.902  23.088
 302.03  29.011  23.119
 302.53  28.902  23.119
 303.03  28.902  23.119
 303.53  28.902  23.119
 304.03  29.011  23.119
 304.53  28.902  23.119
 305.03  28.902  23.119
 305.53  29.119  23.119
 306.03  29.011  23.088
 306.53  28.902  23.119
 307.03  28.902  23.150
 307.53  29.011  23.119
 308.03  29.119  23.119
 308.53  29.119  23.119
 309.03  29.119  23.088
 309.53  29.119  23.150
 310.03  28.902  23.119
 310.53  29.227  23.119
 311.03  29.119  23.119
 311.53  29.119  23.119
 312.03  28.902  23.119
 312.53  29.119  23.088
 313.03  29.119  23.150
 313.53  29.119  23.058
 314.03  29.119  23.150
 314.53  29.227  23.119
 315.03  29.227  23.119
 315.53  29.227  23.119
 316.03  29.227  23.088
 316.53  29.227  23.119
 317.03  29.227  23.119
 317.53  29.227  23.119
 318.03  29.119  23.119
 318.53  29.119  23.150
 319.03  29.227  23.119
 319.53  29.335  23.088
 320.03  29.227  23.119
 320.53  29.335  23.119
 321.03  29.227  23.119
 321.53  29.227  23.150
 322.03  29.335  23.088
 322.53  29.444  23.150
 323.03  29.444  23.150
 323.53  29.335  23.119
 324.03  29.227  23.119
 324.53  29.444  23.150
 325.03  29.444  23.119
 325.53  29.444  23.150
 326.03  29.335  23.150
 326.53  29.444  23.150
 327.03  29.552  23.150
 327.53  29.444  23.150
 328.03  29.335  23.150
 328.53  29.444  23.150
 329.03  29.552  23.119
 329.53  29.660  23.119
 330.03  29.552  23.119
 330.53  29.552  23.119
 331.03  29.444  23.150
 331.53  29.552  23.088
 332.03  29.660  23.119
 332.53  29.552  23.119
 333.03  29.660  23.088
 333.53  29.660  23.150
 334.03  29.660  23.150
 334.53  29.552  23.119
 335.03  29.660  23.119
 335.53  29.552  23.150
 336.03  29.660  23.150
 336.53  29.768  23.119
 337.03  29.660  23.150
 337.53  29.660  23.150
 338.03  29.660  23.088
 338.53  29.660  23.181
 339.03  29.768  23.119
 339.53  29.660  23.088
 340.03  29.768  23.150
 340.53  29.768  23.150
 341.03  29.768  23.119
 341.53  29.552  23.119
 342.03  29.768  23.150
 342.53  29.660  23.119
 343.03  29.768  23.150
 343.53  29.768  23.119
 344.03  29.768  23.119
 344.53  29.660  23.088
 345.03  29.768  23.150
 345.53  29.877  23.150
 346.03  29.768  23.150
 346.53  29.877  23.150
 347.03  29.768  23.150
 347.53  29.877  23.150
 348.03  29.877  23.119
 348.53  29.877  23.119
 349.03  29.985  23.150
 349.53  29.877  23.119
 350.03  30.101  23.150
 350.53  29.877  23.119
 351.03  29.877  23.119
 351.53  29.768  23.119
 352.03  29.768  23.119
 352.53  29.877  23.150
 353.03  29.985  23.119
 353.53  29.877  23.150
 354.03  29.985  23.119
 354.53  30.334  23.150
 355.03  29.985  23.088
 355.53  30.101  23.150
 356.03  29.985  23.150
 356.53  30.101  23.150
 357.03  30.101  23.150
 357.53  30.101  23.150
 358.03  29.985  23.150
 358.53  30.101  23.150
 359.03  30.217  23.119
 359.53  30.101  23.119
 360.03  30.217  23.119
 360.53  30.101  23.150
 361.03  30.101  23.119
 361.53  30.101  23.150
 362.03  30.101  23.150
 362.53  30.101  23.150
 363.03  29.985  23.119
 363.53  30.334  23.119
 364.03  30.217  23.150
 364.53  30.217  23.119
 365.03  30.217  23.150
 365.53  30.217  23.150
 366.03  30.217  23.119
 366.53  30.217  23.150
 367.03  30.101  23.181
 367.53  30.101  23.150
 368.03  30.334  23.119
 368.53  30.451  23.150
 369.03  30.334  23.150
 369.53  30.217  23.119
 370.03  30.101  23.119
 370.53  30.334  23.150
 371.03  30.451  23.150
 371.53  30.217  23.119
 372.03  30.334  23.150
 372.53  30.334  23.181
 373.03  30.451  23.150
 373.53  30.334  23.119
 374.03  30.334  23.150
 374.53  30.568  23.119
 375.03  30.334  23.119
 375.53  30.568  23.119
 376.03  30.451  23.181
 376.53  30.451  23.150
 377.03  30.451  23.119
 377.53  30.451  23.119
 378.03  30.334  23.119
 378.53  30.568  23.150
 379.03  30.451  23.119
 379.53  30.568  23.150
 380.03  30.451  23.150
 380.53  30.568  23.150
 381.03  30.568  23.150
 381.53  30.451  23.150
 382.03  30.568  23.150
 382.53  30.685  23.119
 383.03  30.451  23.150
 383.53  30.802  23.150
 384.03  30.568  23.150
 384.53  30.685  23.119
 385.03  30.685  23.119
 385.53  30.685  23.150
 386.03  30.568  23.150
 386.53  30.802  23.181
 387.04  30.568  23.150
 387.54  30.568  23.181
 388.04  30.568  23.119
 388.54  30.685  23.150
 389.04  30.568  23.150
 389.54  30.685  23.150
 390.04  30.685  23.150
 390.54  30.685  23.150
 391.04  30.685  23.150
 391.54  30.802  23.150
 392.04  30.685  23.150
 392.54  30.802  23.181
 393.04  30.685  23.150
 393.54  30.802  23.150
 394.04  30.802  23.150
 394.54  30.802  23.181
 395.04  30.802  23.150
 395.54  30.685  23.181
 396.04  30.802  23.119
 396.54  30.802  23.150
 397.04  30.802  23.181
 397.54  30.802  23.088
 398.04  30.919  23.150
 398.54  31.036  23.088
 399.04  30.919  23.181
 399.54  30.919  23.150
 400.04  30.802  23.119
 400.54  30.919  23.119
 401.04  30.919  23.150
 401.54  30.919  23.150
 402.04  31.036  23.181
 402.54  30.919  23.150
 403.04  30.919  23.181
 403.54  31.036  23.150
 404.04  30.919  23.181
 404.54  31.036  23.150
 405.04  30.919  23.150
 405.54  30.919  23.150
 406.04  30.919  23.150
 406.54  31.152  23.181
 407.04  31.036  23.150
 407.54  31.036  23.119
 408.04  31.036  23.119
 408.54  31.152  23.181
 409.04  30.919  23.181
 409.54  31.036  23.150
 410.04  31.036  23.181
 410.54  31.036  23.150
 411.04  31.036  23.150
 411.54  31.152  23.119
 412.04  31.036  23.119
 412.54  31.152  23.150
 413.04  31.036  23.150
 413.54  31.152  23.119
 414.04  31.269  23.150
 414.54  31.036  23.181
 415.04  31.152  23.150
 415.54  31.152  23.212
 416.04  31.152  23.150
 416.54  31.036  23.150
 417.04  31.036  23.119
 417.54  31.269  23.212
 418.04  31.036  23.119
 418.54  31.152  23.181
 419.04  31.269  23.119
 419.54  31.269  23.181
 420.04  31.152  23.150
 420.54  31.386  23.150
 421.04  31.152  23.150
 421.54  31.269  23.150
 422.04  31.152  23.181
 422.54  31.152  23.150
 423.04  31.386  23.181
 423.54  31.152  23.150
 424.04  31.269  23.150
 424.54  31.269  23.150
 425.04  31.269  23.181
 425.54  31.386  23.181
 426.04  31.386  23.150
 426.54  31.620  23.150
 427.04  31.386  23.181
 427.54  31.386  23.150
 428.04  31.386  23.181
 428.54  31.503  23.150
 429.04  31.620  23.150
 429.54  31.269  23.242
 430.04  31.503  23.088
 430.54  31.386  23.150
 431.04  31.503  23.150
 431.54  31.386  23.150
 432.04  31.386  23.150
 432.54  31.386  23.150
 433.04  31.503  23.150
 433.54  31.386  23.150
 434.04  31.620  23.150
 434.54  31.386  23.181
 435.04  31.503  23.212
 435.54  31.503  23.181
 436.04  31.620  23.150
 436.54  31.620  23.150
 437.04  31.503  23.181
 437.54  31.620  23.150
 438.04  31.386  23.150
 438.54  31.503  23.150
 439.04  31.503  23.119
 439.54  31.737  23.119
 440.04  31.620  23.242
 440.54  31.503  23.150
 441.04  31.503  23.181
 441.54  31.854  23.150
 442.04  31.620  23.150
 442.54  31.620  23.150
 443.04  31.737  23.150
 443.54  31.737  23.181
 444.04  31.620  23.150
 444.54  31.620  23.119
 445.04  31.737  23.150
 445.54  31.737  23.150
 446.04  31.503  23.150
 446.54  31.503  23.119
 447.04  31.737  23.119
 447.54  31.503  23.150
 448.04  31.737  23.150
 448.54  31.620  23.181
 449.04  31.620  23.150
 449.54  31.737  23.181
 450.04  31.620  23.150
 450.54  31.737  23.119
 451.04  31.737  23.181
 451.54  31.737  23.119
 452.04  31.737  23.212
 452.54  31.854  23.181
 453.04  31.737  23.150
 453.54  31.854  23.181
 454.04  31.854  23.181
 454.54  31.737  23.181
 455.04  31.854  23.119
 455.54  31.737  23.150
 456.04  31.620  23.181
 456.54  31.854  23.181
 457.04  31.971  23.150
 457.54  32.087  23.150
 458.04  31.971  23.150
 458.54  31.971  23.150
 459.04  31.971  23.181
 459.54  31.971  23.181
 460.04  31.854  23.150
 460.54  32.087  23.150
 461.04  31.971  23.181
 461.54  31.971  23.119
 462.04  31.854  23.181
 462.54  31.971  23.150
 463.04  31.971  23.150
 463.54  32.087  23.150
 464.04  31.854  23.212
 464.54  31.854  23.150
 465.04  32.087  23.181
 465.54  31.854  23.150
 466.04  31.971  23.150
 466.54  31.971  23.150
 467.04  32.087  23.150
 467.54  32.087  23.181
 468.04  32.087  23.181
 468.54  31.971  23.181
 469.04  32.204  23.181
 469.54  31.971  23.150
 470.04  32.087  23.181
 470.54  32.204  23.150
 471.04  32.087  23.181
 471.54  32.087  23.181
 472.04  32.087  23.181
 472.54  32.087  23.150
 473.04  32.087  23.150
 473.54  32.087  23.150
 474.04  32.204  23.150
 474.54  32.087  23.150
 475.04  32.087  23.150
 475.54  32.204  23.181
 476.04  32.204  23.181
 476.54  32.204  23.181
 477.04  32.204  23.181
 477.54  32.204  23.181
 478.04  32.204  23.150
 478.54  32.204  23.150
 479.04  32.321  23.150
 479.54  32.321  23.119
 480.04  32.204  23.181
 480.54  32.204  23.181
 481.04  32.204  23.181
 481.54  32.204  23.212
 482.04  32.204  23.150
 482.54  32.321  23.150
 483.04  32.204  23.150
 483.54  32.204  23.150
 484.04  32.321  23.150
 484.54  32.321  23.181
 485.04  32.438  23.181
 485.54  32.321  23.119
 486.04  32.321  23.212
 486.54  32.438  23.150
 487.04  32.321  23.150
 487.54  32.438  23.150
 488.04  32.438  23.150
 488.54  32.204  23.150
 489.04  32.321  23.181
 489.54  32.438  23.181
 490.04  32.438  23.181
 490.54  32.438  23.181
 491.04  32.438  23.150
 491.54  32.438  23.181
 492.04  32.438  23.150
 492.54  32.438  23.150
 493.04  32.438  23.181
 493.54  32.555  23.181
 494.04  32.555  23.181
 494.54  32.438  23.181
 495.04  32.438  23.150
 495.54  32.555  23.119
 496.04  32.555  23.181
 496.54  32.555  23.150
 497.04  32.438  23.181
 497.54  32.555  23.150
 498.04  32.555  23.181
 498.54  32.438  23.181
 499.04  32.555  23.181
 499.54  32.555  23.181
 500.05  32.555  23.181
 500.55  32.555  23.181
 501.05  32.555  23.181
 501.55  32.555  23.181
 502.05  32.555  23.181
 502.55  32.555  23.150
 503.05  32.555  23.150
 503.55  32.672  23.212
 504.05  32.555  23.181
 504.55  32.672  23.181
 505.05  32.672  23.181
 505.55  32.672  23.181
 506.05  32.672  23.212
 506.55  32.555  23.150
 507.05  32.672  23.242
 507.55  32.555  23.150
 508.05  32.672  23.150
 508.55  32.672  23.181
 509.05  32.672  23.150
 509.55  32.672  23.181
 510.05  32.555  23.181
 510.55  32.789  23.150
 511.05  32.672  23.181
 511.55  32.789  23.181
 512.05  32.672  23.181
 512.55  32.789  23.150
 513.05  32.672  23.212
 513.55  32.789  23.150
 514.05  32.789  23.181
 514.55  32.789  23.181
 515.05  32.672  23.150
 515.55  32.789  23.181
 516.05  32.789  23.181
 516.55  32.906  23.181
 517.05  32.906  23.181
 517.55  32.672  23.150
 518.05  32.789  23.181
 518.55  32.789  23.181
 519.05  32.789  23.181
 519.55  32.906  23.181
 520.05  32.789  23.181
 520.55  32.789  23.212
 521.05  32.906  23.181
 521.55  32.789  23.212
 522.05  32.906  23.150
 522.55  32.906  23.181
 523.05  33.022  23.212
 523.55  32.906  23.181
 524.05  32.789  23.181
 524.55  32.906  23.212
 525.05  32.906  23.212
 525.55  32.906  23.181
 526.05  32.906  23.181
 526.55  33.022  23.181
 527.05  32.789  23.181
 527.55  32.906  23.150
 528.05  32.906  23.150
 528.55  32.906  23.181
 529.05  32.906  23.181
 529.55  32.906  23.181
 530.05  33.022  23.181
 530.55  32.906  23.181
 531.05  33.022  23.181
 531.55  33.022  23.181
 532.05  33.022  23.150
 532.55  33.022  23.212
 533.05  32.906  23.181
 533.55  33.022  23.181
 534.05  33.022  23.181
 534.55  33.022  23.212
 535.05  33.139  23.181
 535.55  33.022  23.181
 536.05  33.139  23.181
 536.55  32.906  23.181
 537.05  33.022  23.212
 537.55  33.022  23.181
 538.05  33.022  23.181
 538.55  33.139  23.181
 539.05  33.022  23.181
 539.55  33.139  23.181
 540.05  33.256  23.181
 540.55  33.022  23.212
 541.05  33.139  23.212
 541.55  33.139  23.181
 542.05  33.139  23.181
 542.55  33.256  23.181
 543.05  33.373  23.212
 543.55  33.139  23.212
 544.05  33.139  23.181
 544.55  33.256  23.181
 545.05  33.139  23.181
 545.55  33.256  23.181
 546.05  33.139  23.181
 546.55  33.256  23.212
 547.05  33.256  23.119
 547.55  33.139  23.181
 548.05  33.139  23.181
 548.55  33.256  23.150
 549.05  33.256  23.150
 549.55  33.256  23.242
 550.05  33.022  23.181
 550.55  33.256  23.181
 551.05  33.256  23.181
 551.55  33.022  23.181
 552.05  33.256  23.150
 552.55  33.373  23.212
 553.05  33.256  23.181
 553.55  33.373  23.181
 554.05  33.373  23.150
 554.55  33.256  23.181
 555.05  33.256  23.181
 555.55  33.373  23.150
 556.05  33.373  23.150
 556.55  33.373  23.181
 557.05  33.490  23.181
 557.55  33.373  23.181
 558.05  33.256  23.212
 558.55  33.373  23.150
 559.05  33.490  23.119
 559.55  33.490  23.181
 560.05  33.490  23.150
 560.55  33.607  23.212
 561.05  33.139  23.181
 561.55  33.373  23.212
 562.05  33.373  23.181
 562.55  33.256  23.181
 563.05  33.490  23.181
 563.55  33.607  23.212
 564.05  33.490  23.181
 564.55  33.490  23.212
 565.05  33.490  23.181
 565.55  33.490  23.181
 566.05  33.490  23.212
 566.55  33.490  23.212
 567.05  33.490  23.181
 567.55  33.490  23.212
 568.05  33.607  23.181
 568.55  33.607  23.181
 569.05  33.490  23.181
 569.55  33.373  23.212
 570.05  33.490  23.212
 570.55  33.490  23.181
 571.05  33.373  23.212
 571.55  33.607  23.181
 572.05  33.607  23.181
 572.55  33.607  23.212
 573.05  33.607  23.212
 573.55  33.490  23.181
 574.05  33.724  23.212
 574.55  33.607  23.212
 575.05  33.607  23.212
 575.55  33.724  23.181
 576.05  33.957  23.212
 576.55  33.724  23.212
 577.05  33.724  23.181
 577.55  33.724  23.212
 578.05  33.724  23.181
 578.55  33.724  23.212
 579.05  33.607  23.181
 579.55  33.607  23.150
 580.05  33.724  23.212
 580.55  33.607  23.181
 581.05  33.724  23.242
 581.55  33.724  23.212
 582.05  33.724  23.181
 582.55  33.841  23.212
 583.05  33.724  23.212
 583.55  33.841  23.181
 584.05  33.607  23.181
 584.55  33.724  23.212
 585.05  33.724  23.181
 585.55  33.724  23.212
 586.05  33.841  23.181
 586.55  33.724  23.181
 587.05  33.841  23.181
 587.55  33.724  23.181
 588.05  33.724  23.212
 588.55  33.841  23.181
 589.05  33.841  23.212
 589.55  33.724  23.181
 590.05  33.841  23.212
 590.55  33.841  23.181
 591.05  33.841  23.212
 591.55  33.957  23.242
 592.05  33.957  23.181
 592.55  33.957  23.212
 593.05  33.957  23.181
 593.55  33.841  23.212
 594.05  33.724  23.212
 594.55  33.841  23.150
 595.05  33.957  23.181
 595.55  33.957  23.242
 596.05  33.841  23.181
 596.55  33.841  23.181
 597.05  33.841  23.212
 597.55  33.841  23.212
 598.05  33.841  23.212
 598.55  33.957  23.181
 599.05  33.957  23.212
 599.55  33.957  23.212
 600.05  33.957  23.181
 600.55  33.957  23.212
 601.05  33.957  23.150
 601.55  34.074  23.212
 602.05  33.957  23.242
 602.55  34.074  23.181
 603.05  33.957  23.212
 603.55  34.074  23.242
 604.05  34.074  23.212
 604.55  33.957  23.242
 605.05  33.957  23.212
 605.55  33.957  23.181
 606.05  33.957  23.181
 606.55  33.957  23.181
 607.05  34.074  23.181
 607.55  33.957  23.181
 608.05  33.957  23.212
 608.55  33.841  23.242
 609.05  34.074  23.181
 609.55  34.074  23.212
 610.05  34.074  23.212
 610.55  34.074  23.212
 611.05  34.074  23.212
 611.55  34.074  23.181
 612.05  34.074  23.181
 612.55  34.074  23.212
 613.05  34.074  23.181
 613.55  33.841  23.242
 614.05  33.957  23.181
 614.55  34.191  23.181
 615.05  34.191  23.212
 615.55  34.191  23.212
 616.05  34.191  23.212
 616.55  34.191  23.212
 617.05  34.074  23.242
 617.55  34.074  23.212
 618.05  34.191  23.212
 618.55  34.074  23.212
 619.05  34.074  23.181
 619.55  34.191  23.212
 620.05  34.191  23.212
 620.55  34.308  23.212
 621.05  34.191  23.212
 621.55  34.191  23.212
 622.05  34.308  23.181
 622.55  34.191  23.212
 623.05  34.191  23.242
 623.55  34.191  23.212
 624.05  34.425  23.212
 624.56  34.308  23.212
 625.06  34.308  23.273
 625.56  34.308  23.212
 626.06  34.308  23.212
 626.56  34.191  23.150
 627.06  34.191  23.212
 627.56  34.308  23.212
 628.06  34.191  23.212
 628.56  34.191  23.181
 629.06  34.308  23.181
 629.56  34.308  23.212
 630.06  34.425  23.212
 630.56  34.308  23.181
 631.06  34.425  23.212
 631.56  34.308  23.150
 632.06  34.191  23.212
 632.56  34.425  23.212
 633.06  34.425  23.212
 633.56  34.425  23.212
 634.06  34.308  23.242
 634.56  34.425  23.212
 635.06  34.191  23.212
 635.56  34.308  23.212
 636.06  34.191  23.181
 636.56  34.425  23.242
 637.06  34.308  23.242
 637.56  34.425  23.212
 638.06  34.308  23.212
 638.56  34.425  23.212
 639.06  34.425  23.212
 639.56  34.425  23.242
 640.06  34.542  23.212
 640.56  34.425  23.212
 641.06  34.659  23.242
 641.56  34.425  23.212
 642.06  34.425  23.212
 642.56  34.425  23.212
 643.06  34.425  23.212
 643.56  34.659  23.242
 644.06  34.542  23.242
 644.56  34.542  23.212
 645.06  34.542  23.212
 645.56  34.425  23.212
 646.06  34.425  23.212
 646.56  34.425  23.212
 647.06  34.425  23.212
 647.56  34.542  23.212
 648.06  34.425  23.242
 648.56  34.425  23.181
 649.06  34.542  23.212
 649.56  34.425  23.212
 650.06  34.542  23.212
 650.56  34.425  23.212
 651.06  34.425  23.212
 651.56  34.425  23.242
 652.06  34.542  23.212
 652.56  34.542  23.212
 653.06  34.542  23.212
 653.56  34.542  23.212
 654.06  34.542  23.212
 654.56  34.542  23.212
 655.06  34.659  23.242
 655.56  34.659  23.212
 656.06  34.659  23.181
 656.56  34.659  23.212
 657.06  34.659  23.242
 657.56  34.659  23.212
 658.06  34.542  23.212
 658.56  34.542  23.242
 659.06  34.542  23.212
 659.56  34.542  23.212
 660.06  34.659  23.212
 660.56  34.659  23.181
 661.06  34.542  23.212
 661.56  34.776  23.242
 662.06  34.659  23.181
 662.56  34.659  23.242
 663.06  34.659  23.212
 663.56  34.659  23.212
 664.06  34.659  23.242
 664.56  34.659  23.212
 665.06  34.659  23.212
 665.56  34.659  23.212
 666.06  34.892  23.150
 666.56  35.005  23.212
 667.06  34.776  23.212
 667.56  34.776  23.212
 668.06  34.776  23.212
 668.56  34.776  23.212
 669.06  34.659  23.212
 669.56  34.659  23.242
 670.06  35.005  23.242
 670.56  34.659  23.212
 671.06  34.776  23.212
 671.56  34.776  23.212
 672.06  34.776  23.242
 672.56  34.892  23.212
 673.06  34.892  23.181
 673.56  34.776  23.212
 674.06  34.892  23.212
 674.56  34.776  23.212
 675.06  34.776  23.212
 675.56  35.005  23.242
 676.06  34.659  23.212
 676.56  34.892  23.242
 677.06  34.892  23.242
 677.56  34.892  23.212
 678.06  34.776  23.212
 678.56  34.776  23.212
 679.06  34.892  23.212
 679.56  34.659  23.212
 680.06  34.776  23.212
 680.56  35.005  23.212
 681.06  34.776  23.212
 681.56  34.776  23.212
 682.06  34.776  23.212
 682.56  34.892  23.212
 683.06  34.776  23.212
 683.56  34.892  23.242
 684.06  35.005  23.181
 684.56  34.776  23.212
 685.06  34.659  23.212
 685.56  35.005  23.242
 686.06  35.005  23.242
 686.56  34.892  23.242
 687.06  35.133  23.242
 687.56  34.892  23.242
 688.06  34.892  23.181
 688.56  35.005  23.242
 689.06  35.005  23.242
 689.56  34.892  23.212
 690.06  34.892  23.212
 690.56  35.005  23.242
 691.06  34.892  23.242
 691.56  35.005  23.242
 692.06  35.069  23.212
 692.56  35.005  23.242
 693.06  34.892  23.212
 693.56  34.892  23.212
 694.06  35.005  23.242
 694.56  35.069  23.242
 695.06  35.005  23.242
 695.56  35.005  23.273
 696.06  34.892  23.242
 696.56  34.892  23.212
 697.06  35.005  23.242
 697.56  35.069  23.242
 698.06  35.005  23.242
 698.56  35.005  23.212
 699.06  35.005  23.242
 699.56  35.069  23.242
 700.06  35.069  23.212
 700.56  35.005  23.242
 701.06  35.069  23.242
 701.56  35.069  23.242
 702.06  35.005  23.212
 702.56  35.069  23.212
 703.06  35.069  23.212
 703.56  35.069  23.242
 704.06  35.133  23.212
 704.56  35.069  23.212
 705.06  35.005  23.212
 705.56  35.005  23.273
 706.06  35.133  23.212
 706.56  35.069  23.242
 707.06  35.005  23.273
 707.56  35.005  23.212
 708.06  35.069  23.242
 708.56  35.133  23.242
 709.06  35.133  23.273
 709.56  35.069  23.273
 710.06  35.133  23.242
 710.56  35.133  23.242
 711.06  35.133  23.242
 711.56  35.133  23.242
 712.06  35.069  23.242
 712.56  35.133  23.242
 713.06  35.197  23.242
 713.56  35.069  23.242
 714.06  35.197  23.212
 714.56  35.261  23.242
 715.06  35.005  23.242
 715.56  35.261  23.242
 716.06  35.133  23.273
 716.56  35.133  23.273
 717.06  35.133  23.212
 717.56  35.197  23.273
 718.06  35.133  23.242
 718.56  35.133  23.212
 719.06  35.133  23.273
 719.56  35.133  23.242
 720.06  35.133  23.242
 720.56  35.197  23.273
 721.06  35.133  23.242
 721.56  35.133  23.273
 722.06  35.133  23.242
 722.56  35.197  23.273
 723.06  35.261  23.242
 723.56  35.197  23.242
 724.06  35.197  23.242
 724.56  35.197  23.242
 725.06  35.197  23.242
 725.56  35.133  23.242
 726.06  35.197  23.242
 726.57  35.133  23.212
 727.07  35.261  23.242
 727.57  35.197  23.242
 728.07  35.197  23.273
 728.57  35.197  23.212
 729.07  35.197  23.242
 729.57  35.197  23.242
 730.07  35.197  23.212
 730.57  35.261  23.242
 731.07  35.197  23.242
 731.57  35.325  23.242
 732.07  35.197  23.273
 732.57  35.197  23.304
 733.07  35.197  23.242
 733.57  35.197  23.242
 734.07  35.197  23.242
 734.57  35.197  23.242
 735.07  35.261  23.242
 735.57  35.261  23.242
 736.07  35.261  23.242
 736.57  35.197  23.242
 737.07  35.261  23.212
 737.57  35.261  23.304
 738.07  35.261  23.273
 738.57  35.261  23.242
 739.07  35.197  23.273
 739.57  35.261  23.242
 740.07  35.261  23.242
 740.57  35.389  23.242
 741.07  35.261  23.242
 741.57  35.325  23.273
 742.07  35.261  23.242
 742.57  35.261  23.242
 743.07  35.261  23.242
 743.57  35.325  23.242
 744.07  35.261  23.242
 744.57  35.325  23.273
 745.07  35.261  23.242
 745.57  35.325  23.273
 746.07  35.389  23.242
 746.57  35.261  23.273
 747.07  35.261  23.242
 747.57  35.389  23.242
 748.07  35.325  23.242
 748.57  35.389  23.242
 749.07  35.261  23.242
 749.57  35.261  23.273
 750.07  35.325  23.242
 750.57  35.261  23.273
 751.07  35.325  23.273
 751.57  35.389  23.242
 752.07  35.325  23.242
 752.57  35.325  23.242
 753.07  35.325  23.242
 753.57  35.389  23.273
 754.07  35.325  23.242
 754.57  35.325  23.242
 755.07  35.389  23.273
 755.57  35.389  23.273
 756.07  35.453  23.242
 756.57  35.389  23.273
 757.07  35.325  23.242
 757.57  35.261  23.212
 758.07  35.325  23.242
 758.57  35.325  23.242
 759.07  35.389  23.273
 759.57  35.389  23.273
 760.07  35.453  23.273
 760.57  35.389  23.242
 761.07  35.389  23.273
 761.57  35.389  23.242
 762.07  35.389  23.273
 762.57  35.389  23.242
 763.07  35.389  23.242
 763.57  35.389  23.242
 764.07  35.389  23.304
 764.57  35.325  23.273
 765.07  35.453  23.304
 765.57  35.453  23.273
 766.07  35.389  23.273
 766.57  35.389  23.242
 767.07  35.517  23.242
 767.57  35.389  23.242
 768.07  35.389  23.242
 768.57  35.389  23.242
 769.07  35.453  23.242
 769.57  35.389  23.212
 770.07  35.389  23.212
 770.57  35.389  23.242
 771.07  35.453  23.273
 771.57  35.453  23.273
 772.07  35.389  23.273
 772.57  35.453  23.242
 773.07  35.389  23.273
 773.57  35.453  23.273
 774.07  35.517  23.242
 774.57  35.517  23.242
 775.07  35.453  23.242
 775.57  35.517  23.242
 776.07  35.453  23.242
 776.57  35.453  23.273
 777.07  35.453  23.242
 777.57  35.453  23.212
 778.07  35.453  23.273
 778.57  35.517  23.273
 779.07  35.453  23.304
 779.57  35.517  23.273
 780.07  35.517  23.273
 780.57  35.453  23.273
 781.07  35.453  23.273
 781.57  35.517  23.273
 782.07  35.517  23.273
 782.57  35.453  23.242
 783.07  35.517  23.242
 783.57  35.453  23.304
 784.07  35.517  23.304
 784.57  35.517  23.242
 785.07  35.453  23.242
 785.57  35.645  23.273
 786.07  35.517  23.273
 786.57  35.517  23.273
 787.07  35.453  23.273
 787.57  35.453  23.304
 788.07  35.517  23.273
 788.57  35.517  23.273
 789.07  35.453  23.242
 789.57  35.517  23.242
 790.07  35.581  23.335
 790.57  35.517  23.273
 791.07  35.581  23.273
 791.57  35.517  23.273
 792.07  35.517  23.273
 792.57  35.517  23.273
 793.07  35.453  23.273
 793.57  35.581  23.273
 794.07  35.581  23.273
 794.57  35.581  23.242
 795.07  35.581  23.273
 795.57  35.453  23.273
 796.07  35.517  23.273
 796.57  35.517  23.273
 797.07  35.581  23.304
 797.57  35.645  23.242
 798.07  35.645  23.273
 798.57  35.581  23.273
 799.07  35.517  23.273
 799.57  35.581  23.273
 800.07  35.517  23.273
 800.57  35.581  23.304
 801.07  35.645  23.242
 801.57  35.517  23.273
 802.07  35.581  23.242
 802.57  35.581  23.304
 803.07  35.581  23.242
 803.57  35.581  23.273
 804.07  35.581  23.242
 804.57  35.645  23.273
 805.07  35.645  23.273
 805.57  35.645  23.273
 806.07  35.645  23.273
 806.57  35.581  23.242
 807.07  35.581  23.273
 807.57  35.645  23.242
 808.07  35.645  23.273
 808.57  35.517  23.273
 809.07  35.645  23.273
 809.57  35.645  23.242
 810.07  35.645  23.335
 810.57  35.645  23.242
 811.07  35.581  23.273
 811.57  35.645  23.273
 812.07  35.581  23.273
 812.57  35.645  23.273
 813.07  35.645  23.273
 813.57  35.645  23.273
 814.07  35.517  23.304
 814.57  35.645  23.273
 815.07  35.773  23.242
 815.57  35.645  23.181
 816.07  35.645  23.273
 816.57  35.645  23.304
 817.07  35.645  23.273
 817.57  35.645  23.273
 818.07  35.645  23.304
 818.57  35.645  23.273
 819.07  35.645  23.304
 819.57  35.645  23.273
 820.07  35.581  23.273
 820.57  35.709  23.273
 821.07  35.773  23.273
 821.57  35.517  23.273
 822.07  35.645  23.273
 822.57  35.709  23.273
 823.07  35.645  23.304
 823.57  35.709  23.273
 824.07  35.709  23.242
 824.57  35.773  23.273
 825.07  35.773  23.304
 825.57  35.773  23.273
 826.07  35.645  23.273
 826.57  35.709  23.242
 827.07  35.709  23.273
 827.57  35.581  23.304
 828.07  35.709  23.273
 828.57  35.709  23.273
 829.07  35.645  23.273
 829.57  35.709  23.242
 830.07  35.709  23.304
 830.57  35.773  23.304
 831.07  35.773  23.273
 831.57  35.773  23.273
 832.07  35.773  23.273
 832.57  35.709  23.273
 833.07  35.709  23.273
 833.57  35.709  23.242
 834.07  35.709  23.273
 834.57  35.709  23.273
 835.07  35.773  23.273
 835.57  35.773  23.273
 836.07  35.709  23.273
 836.57  35.581  23.242
 837.07  35.773  23.273
 837.57  35.709  23.273
 838.07  35.773  23.273
 838.57  35.709  23.273
 839.07  35.837  23.273
 839.58  35.709  23.273
 840.08  35.773  23.273
 840.58  35.837  23.273
 841.08  35.709  23.304
 841.58  35.773  23.335
 842.08  35.773  23.273
 842.58  35.773  23.304
 843.08  35.773  23.273
 843.58  35.773  23.273
 844.08  35.773  23.304
 844.58  35.773  23.273
 845.08  35.773  23.304
 845.58  35.773  23.273
 846.08  35.773  23.273
 846.58  35.773  23.273
 847.08  35.965  23.273
 847.58  35.773  23.304
 848.08  35.773  23.273
 848.58  35.773  23.304
 849.08  35.837  23.273
 849.58  35.837  23.273
 850.08  35.837  23.273
 850.58  35.837  23.273
 851.08  35.901  23.242
 851.58  35.837  23.273
 852.08  35.773  23.273
 852.58  35.837  23.304
 853.08  35.965  23.304
 853.58  35.837  23.273
 854.08  35.965  23.304
 854.58  35.837  23.304
 855.08  35.837  23.273
 855.58  35.901  23.273
 856.08  35.901  23.273
 856.58  35.837  23.304
 857.08  35.837  23.304
 857.58  35.837  23.273
 858.08  35.837  23.304
 858.58  35.837  23.304
 859.08  35.837  23.304
 859.58  35.837  23.304
 860.08  35.837  23.273
 860.58  35.901  23.273
 861.08  35.901  23.304
 861.58  35.901  23.335
 862.08  35.837  23.335
 862.58  35.901  23.273
 863.08  35.709  23.304
 863.58  35.965  23.273
 864.08  35.901  23.304
 864.58  35.837  23.273
 865.08  35.965  23.304
 865.58  35.837  23.273
 866.08  35.901  23.273
 866.58  35.965  23.273
 867.08  35.901  23.242
 867.58  35.901  23.242
 868.08  35.901  23.304
 868.58  35.901  23.273
 869.08  35.901  23.304
 869.58  35.965  23.304
 870.08  35.837  23.304
 870.58  35.965  23.304
 871.08  35.901  23.273
 871.58  35.965  23.273
 872.08  35.901  23.273
 872.58  35.901  23.273
 873.08  36.029  23.273
 873.58  35.965  23.273
 874.08  35.965  23.273
 874.58  35.901  23.304
 875.08  35.901  23.304
 875.58  35.965  23.335
 876.08  35.901  23.273
 876.58  35.901  23.304
 877.08  35.901  23.304
 877.58  35.901  23.335
 878.08  35.965  23.273
 878.58  35.837  23.273
 879.08  35.965  23.304
 879.58  35.901  23.273
 880.08  35.901  23.273
 880.58  35.901  23.273
 881.08  35.965  23.273
 881.58  35.901  23.273
 882.08  35.901  23.304
 882.58  35.965  23.273
 883.08  35.965  23.304
 883.58  35.965  23.304
 884.08  35.965  23.335
 884.58  36.029  23.273
 885.08  36.029  23.335
 885.58  35.965  23.273
 886.08  35.965  23.335
 886.58  35.901  23.304
 887.08  35.965  23.304
 887.58  35.965  23.304
 888.08  35.901  23.242
 888.58  35.901  23.273
 889.08  35.901  23.304
 889.58  35.965  23.335
 890.08  36.029  23.304
 890.58  35.965  23.273
 891.08  36.029  23.273
 891.58  35.965  23.273
 892.08  35.965  23.273
 892.58  36.029  23.335
 893.08  35.965  23.335
 893.58  35.965  23.335
 894.08  36.029  23.304
 894.58  36.157  23.273
 895.08  35.965  23.304
 895.58  35.965  23.273
 896.08  36.029  23.304
 896.58  35.965  23.273
 897.08  36.093  23.304
 897.58  36.029  23.304
 898.08  36.093  23.304
 898.58  36.093  23.304
 899.08  36.093  23.304
 899.58  35.965  23.304
 900.08  36.029  23.273
 900.58  36.029  23.273
 901.08  36.157  23.273
 901.58  36.029  23.273
 902.08  36.029  23.335
 902.58  36.029  23.335
 903.08  36.029  23.335
 903.58  36.157  23.273
 904.08  36.029  23.212
 904.58  36.029  23.304
 905.08  36.029  23.273
 905.58  35.965  23.304
 906.08  36.029  23.212
 906.58  36.029  23.304
 907.08  36.029  23.335
 907.58  36.029  23.304
 908.08  36.157  23.304
 908.58  36.029  23.304
 909.08  36.093  23.304
 909.58  36.093  23.304
 910.08  36.029  23.304
 910.58  36.093  23.304
 911.08  36.157  23.304
 911.58  36.093  23.304
 912.08  36.093  23.304
 912.58  36.157  23.366
 913.08  36.093  23.304
 913.58  36.029  23.273
 914.08  36.093  23.304
 914.58  36.093  23.304
 915.08  36.093  23.304
 915.58  36.029  23.335
 916.08  36.093  23.304
 916.58  36.093  23.335
 917.08  36.093  23.273
 917.58  36.157  23.304
 918.08  36.093  23.304
 918.58  36.029  23.304
 919.08  36.093  23.273
 919.58  36.093  23.304
 920.08  36.093  23.304
 920.58  36.157  23.304
 921.08  36.093  23.304
 921.58  36.029  23.304
 922.08  36.093  23.304
 922.58  36.093  23.335
 923.08  36.093  23.335
 923.58  36.093  23.273
 924.08  36.157  23.304
 924.58  36.093  23.273
 925.08  36.093  23.273
 925.58  36.093  23.273
 926.08  36.093  23.304
 926.58  36.093  23.335
 927.08  36.157  23.304
 927.58  36.093  23.304
 928.08  36.093  23.304
 928.58  36.157  23.304
 929.08  36.157  23.304
 929.58  36.157  23.304
 930.08  36.221  23.273
 930.58  36.221  23.335
 931.08  36.157  23.273
 931.58  36.093  23.273
 932.08  36.093  23.304
 932.58  36.157  23.304
 933.08  36.221  23.304
 933.58  36.093  23.304
 934.08  36.221  23.304
 934.58  36.157  23.304
 935.08  36.093  23.304
 935.58  36.157  23.304
 936.08  36.093  23.273
 936.58  36.221  23.304
 937.08  36.157  23.304
 937.58  36.221  23.335
 938.08  36.221  23.304
 938.58  36.157  23.304
 939.08  36.157  23.304
 939.58  36.157  23.304
 940.08  36.157  23.335
 940.58  36.221  23.304
 941.08  36.221  23.304
 941.58  36.157  23.335
 942.08  36.221  23.304
 942.58  36.221  23.304
 943.08  36.157  23.304
 943.58  36.093  23.335
 944.08  36.221  23.304
 944.58  36.221  23.304
 945.08  36.221  23.304
 945.58  36.221  23.273
 946.08  36.157  23.366
 946.58  36.285  23.304
 947.08  36.157  23.335
 947.58  36.221  23.335
 948.08  36.221  23.304
 948.58  36.221  23.273
 949.08  36.221  23.304
 949.58  36.285  23.304
 950.08  36.157  23.304
 950.58  36.221  23.304
 951.08  36.221  23.304
 951.58  36.157  23.335
 952.08  36.285  23.304
 952.58  36.221  23.273
 953.09  36.157  23.335
 953.59  36.221  23.335
 954.09  36.221  23.304
 954.59  36.413  23.335
 955.09  36.221  23.304
 955.59  36.285  23.304
 956.09  36.221  23.304
 956.59  36.285  23.335
 957.09  36.285  23.304
 957.59  36.285  23.335
 958.09  36.285  23.335
 958.59  36.285  23.335
 959.09  36.285  23.366
 959.59  36.285  23.335
 960.09  36.285  23.366
 960.59  36.285  23.304
 961.09  36.285  23.335
 961.59  36.285  23.304
 962.09  36.221  23.304
 962.59  36.221  23.304
 963.09  36.285  23.304
 963.59  36.349  23.335
 964.09  36.285  23.304
 964.59  36.285  23.304
 965.09  36.285  23.335
 965.59  36.093  23.304
 966.09  36.285  23.304
 966.59  36.285  23.335
 967.09  36.285  23.304
 967.59  36.349  23.335
 968.09  36.349  23.304
 968.59  36.349  23.335
 969.09  36.285  23.304
 969.59  36.285  23.366
 970.09  36.285  23.335
 970.59  36.349  23.304
 971.09  36.285  23.335
 971.59  36.285  23.304
 972.09  36.349  23.335
 972.59  36.285  23.335
 973.09  36.413  23.304
 973.59  36.285  23.366
 974.09  36.349  23.304
 974.59  36.349  23.335
 975.09  36.285  23.304
 975.59  36.349  23.304
 976.09  36.285  23.304
 976.59  36.285  23.335
 977.09  36.349  23.335
 977.59  36.285  23.335
 978.09  36.285  23.335
 978.59  36.349  23.335
 979.09  36.349  23.335
 979.59  36.349  23.335
 980.09  36.349  23.335
 980.59  36.349  23.335
 981.09  36.349  23.335
 981.59  36.413  23.304
 982.09  36.349  23.335
 982.59  36.285  23.335
 983.09  36.413  23.335
 983.59  36.413  23.335
 984.09  36.349  23.273
 984.59  36.349  23.335
 985.09  36.349  23.335
 985.59  36.349  23.304
 986.09  36.349  23.335
 986.59  36.349  23.366
 987.09  36.285  23.335
 987.59  36.285  23.335
 988.09  36.349  23.335
 988.59  36.349  23.335
 989.09  36.349  23.335
 989.59  36.349  23.335
 990.09  36.349  23.396
 990.59  36.413  23.335
 991.09  36.349  23.335
 991.59  36.349  23.366
 992.09  36.349  23.304
 992.59  36.413  23.335
 993.09  36.349  23.335
 993.59  36.285  23.304
 994.09  36.413  23.335
 994.59  36.413  23.366
 995.09  36.349  23.335
 995.59  36.413  23.335
 996.09  36.349  23.335
 996.59  36.413  23.304
 997.09  36.413  23.335
 997.59  36.413  23.335
 998.09  36.413  23.335
 998.59  36.413  23.396
 999.09  36.477  23.304
 999.59  36.413  23.304
1000.09  36.349  23.304
1000.59  36.413  23.366
1001.09  36.477  23.366
1001.59  36.413  23.335
1002.09  36.413  23.335
1002.59  36.541  23.304
1003.09  36.413  23.335
1003.59  36.477  23.335
1004.09  36.349  23.335
1004.59  36.413  23.304
1005.09  36.349  23.335
1005.59  36.349  23.335
1006.09  36.413  23.335
1006.59  36.477  23.335
1007.09  36.413  23.335
1007.59  36.413  23.335
1008.09  36.477  23.304
1008.59  36.413  23.366
1009.09  36.477  23.335
1009.59  36.477  23.335
1010.09  36.477  23.335
1010.59  36.413  23.335
1011.09  36.413  23.335
1011.59  36.477  23.335
1012.09  36.413  23.335
1012.59  36.413  23.335
1013.09  36.413  23.335
1013.59  36.413  23.304
1014.09  36.605  23.335
1014.59  36.349  23.335
1015.09  36.541  23.304
1015.59  36.477  23.335
1016.09  36.477  23.335
1016.59  36.413  23.366
1017.09  36.477  23.335
1017.59  36.413  23.335
1018.09  36.477  23.273
1018.59  36.413  23.366
1019.09  36.477  23.304
1019.59  36.413  23.335
1020.09  36.477  23.335
1020.59  36.477  23.335
1021.09  36.541  23.335
1021.59  36.477  23.366
1022.09  36.477  23.273
1022.59  36.477  23.335
1023.09  36.477  23.335
1023.59  36.477  23.335
1024.09  36.477  23.366
1024.59  36.477  23.335
1025.09  36.477  23.335
1025.59  36.477  23.335
1026.09  36.477  23.366
1026.59  36.541  23.335
1027.09  36.477  23.335
1027.59  36.477  23.335
1028.09  36.541  23.335
1028.59  36.477  23.366
1029.09  36.541  23.335
1029.59  36.541  23.335
1030.09  36.605  23.366
1030.59  36.477  23.335
1031.09  36.541  23.366
1031.59  36.477  23.335
1032.09  36.541  23.366
1032.59  36.605  23.366
1033.09  36.541  23.335
1033.59  36.477  23.366
1034.09  36.413  23.366
1034.59  36.541  23.366
1035.09  36.477  23.366
1035.59  36.477  23.335
1036.09  36.541  23.366
1036.59  36.541  23.335
1037.09  36.541  23.304
1037.59  36.605  23.335
1038.09  36.541  23.335
1038.59  36.541  23.335
1039.09  36.605  23.335
1039.59  36.541  23.335
1040.09  36.541  23.335
1040.59  36.541  23.304
1041.09  36.541  23.366
1041.59  36.541  23.396
1042.09  36.541  23.335
1042.59  36.541  23.335
1043.09  36.541  23.335
1043.59  36.413  23.366
1044.09  36.541  23.335
1044.59  36.605  23.335
1045.09  36.541  23.304
1045.59  36.477  23.304
1046.09  36.605  23.366
1046.59  36.541  23.335
1047.09  36.541  23.304
1047.59  36.541  23.396
1048.09  36.669  23.335
1048.59  36.605  23.366
1049.09  36.477  23.335
1049.59  36.541  23.396
1050.09  36.605  23.366
1050.59  36.605  23.335
1051.09  36.733  23.366
1051.59  36.605  23.366
1052.09  36.541  23.335
1052.59  36.605  23.335
1053.09  36.605  23.304
1053.59  36.605  23.366
1054.09  36.541  23.366
1054.59  36.733  23.366
1055.09  36.541  23.335
1055.59  36.669  23.427
1056.09  36.605  23.366
1056.59  36.733  23.335
1057.09  36.605  23.366
1057.59  36.733  23.366
1058.09  36.605  23.396
1058.59  36.669  23.335
1059.09  36.605  23.335
1059.59  36.605  23.335
1060.09  36.605  23.335
1060.59  36.541  23.366
1061.09  36.669  23.335
1061.59  36.669  23.335
1062.09  36.669  23.396
1062.59  36.733  23.335
1063.09  36.669  23.366
1063.59  36.733  23.396
1064.09  36.669  23.335
1064.59  36.605  23.304
1065.09  36.605  23.366
1065.59  36.605  23.366
1066.10  36.669  23.335
1066.60  36.605  23.366
1067.10  36.669  23.366
1067.60  36.605  23.335
1068.10  36.669  23.366
1068.60  36.605  23.396
1069.10  36.605  23.396
1069.60  36.605  23.366
1070.10  36.605  23.366
1070.60  36.733  23.366
1071.10  36.669  23.335
1071.60  36.669  23.366
1072.10  36.669  23.366
1072.60  36.669  23.366
1073.10  36.605  23.366
1073.60  36.669  23.335
1074.10  36.669  23.335
1074.60  36.733  23.335
1075.10  36.669  23.366
1075.60  36.733  23.366
1076.10  36.605  23.366
1076.60  36.733  23.366
1077.10  36.669  23.366
1077.60  36.605  23.366
1078.10  36.669  23.366
1078.60  36.733  23.335
1079.10  36.669  23.366
1079.60  36.669  23.335
1080.10  36.669  23.366
1080.60  36.669  23.366
1081.10  36.733  23.396
1081.60  36.733  23.366
1082.10  36.733  23.366
1082.60  36.797  23.366
1083.10  36.733  23.366
1083.60  36.733  23.366
1084.10  36.733  23.396
1084.60  36.669  23.335
1085.10  36.669  23.335
1085.60  36.669  23.366
1086.10  36.669  23.366
1086.60  36.733  23.396
1087.10  36.861  23.335
1087.60  36.669  23.366
1088.10  36.733  23.366
1088.60  36.733  23.335
1089.10  36.733  23.366
1089.60  36.733  23.396
1090.10  36.733  23.366
1090.60  36.733  23.396
1091.10  36.669  23.366
1091.60  36.733  23.366
1092.10  36.733  23.396
1092.60  36.733  23.366
1093.10  36.733  23.366
1093.60  36.797  23.366
1094.10  36.733  23.366
1094.60  36.733  23.366
1095.10  36.669  23.396
1095.60  36.733  23.366
1096.10  36.733  23.366
1096.60  36.669  23.396
1097.10  36.733  23.366
1097.60  36.733  23.396
1098.10  36.797  23.366
1098.60  36.669  23.366
1099.10  36.797  23.396
1099.60  36.797  23.366
1100.10  36.797  23.366
1100.60  36.669  23.366
1101.10  36.733  23.366
1101.60  36.797  23.366
1102.10  36.797  23.366
1102.60  36.733  23.335
1103.10  36.605  23.335
1103.60  36.733  23.396
1104.10  36.797  23.366
1104.60  36.797  23.366
1105.10  36.733  23.366
1105.60  36.733  23.366
1106.10  36.733  23.335
1106.60  36.861  23.366
1107.10  36.861  23.366
1107.60  36.797  23.396
1108.10  36.797  23.366
1108.60  36.797  23.366
1109.10  36.797  23.366
1109.60  36.861  23.366
1110.10  36.797  23.366
1110.60  36.797  23.396
1111.10  36.797  23.366
1111.60  36.797  23.366
1112.10  36.733  23.366
1112.60  36.733  23.335
1113.10  36.797  23.366
1113.60  36.797  23.366
1114.10  36.797  23.458
1114.60  36.861  23.366
1115.10  36.797  23.396
1115.60  36.861  23.366
1116.10  36.797  23.366
1116.60  36.797  23.366
1117.10  36.797  23.396
1117.60  36.861  23.396
1118.10  36.733  23.396
1118.60  36.797  23.366
1119.10  36.861  23.396
1119.60  36.797  23.366
1120.10  36.797  23.366
1120.60  36.797  23.396
1121.10  36.797  23.366
1121.60  36.733  23.366
1122.10  36.733  23.396
1122.60  36.797  23.366
1123.10  36.797  23.427
1123.60  36.797  23.366
1124.10  36.861  23.366
1124.60  36.797  23.366
1125.10  36.797  23.396
1125.60  36.797  23.335
1126.10  36.797  23.366
1126.60  36.797  23.366
1127.10  36.733  23.396
1127.60  36.797  23.366
1128.10  36.797  23.396
1128.60  36.861  23.335
1129.10  36.797  23.366
1129.60  36.797  23.366
1130.10  36.861  23.396
1130.60  36.861  23.366
1131.10  36.797  23.366
1131.60  36.861  23.366
1132.10  36.861  23.366
1132.60  36.861  23.396
1133.10  36.861  23.366
1133.60  36.861  23.366
1134.10  36.861  23.366
1134.60  36.861  23.396
1135.10  36.861  23.366
1135.60  36.861  23.366
1136.10  36.861  23.396
1136.60  36.861  23.396
1137.10  36.925  23.366
1137.60  36.925  23.366
1138.10  36.861  23.366
1138.60  36.797  23.396
1139.10  36.925  23.366
1139.60  36.797  23.458
1140.10  36.861  23.396
1140.60  36.861  23.396
1141.10  36.861  23.396
1141.60  36.861  23.396
1142.10  36.861  23.396
1142.60  36.861  23.366
1143.10  36.861  23.366
1143.60  36.925  23.366
1144.10  36.861  23.366
1144.60  36.861  23.396
1145.10  36.861  23.396
1145.60  36.797  23.396
1146.10  36.861  23.396
1146.60  36.861  23.396
1147.10  36.861  23.396
1147.60  36.797  23.366
1148.10  36.925  23.366
1148.60  36.797  23.366
1149.10  36.925  23.396
1149.60  36.925  23.366
1150.10  36.861  23.366
1150.60  36.861  23.335
1151.10  36.925  23.273
1151.60  36.861  23.396
1152.10  36.925  23.396
1152.60  36.925  23.396
1153.10  36.925  23.396
1153.60  36.925  23.396
1154.10  36.925  23.427
1154.60  36.861  23.396
1155.10  36.861  23.396
1155.60  36.925  23.335
1156.10  36.925  23.396
1156.60  36.989  23.396
1157.10  36.861  23.396
1157.60  36.925  23.396
1158.10  36.925  23.366
1158.60  36.925  23.335
1159.10  36.861  23.396
1159.60  36.925  23.396
1160.10  36.925  23.396
1160.60  36.925  23.396
1161.10  36.925  23.396
1161.60  36.925  23.335
1162.10  36.989  23.366
1162.60  36.989  23.427
1163.10  37.053  23.396
1163.60  36.989  23.396
1164.10  36.989  23.396
1164.60  36.925  23.396
1165.10  36.925  23.396
1165.60  36.925  23.396
1166.10  36.989  23.427
1166.60  37.053  23.396
1167.10  36.989  23.427
1167.60  36.989  23.396
1168.10  36.989  23.396
1168.60  36.989  23.396
1169.10  36.989  23.396
1169.60  36.925  23.304
1170.10  36.989  23.396
1170.60  36.925  23.366
1171.10  36.925  23.427
1171.60  36.925  23.396
1172.10  36.989  23.396
1172.60  36.989  23.366
1173.10  36.989  23.396
1173.60  37.053  23.396
1174.10  36.989  23.396
1174.60  36.989  23.396
1175.10  36.989  23.396
1175.60  37.053  23.427
1176.10  36.925  23.396
1176.60  36.925  23.366
1177.10  36.989  23.396
1177.60  37.053  23.396
1178.10  36.989  23.366
1178.60  36.989  23.366
1179.11  36.989  23.427
1179.61  36.989  23.396
1180.11  36.925  23.396
1180.61  36.989  23.396
1181.11  36.989  23.396
1181.61  37.117  23.396
1182.11  37.053  23.366
1182.61  37.053  23.396
1183.11  36.925  23.396
1183.61  36.925  23.366
1184.11  37.053  23.427
1184.61  36.989  23.427
1185.11  37.053  23.427
1185.61  36.989  23.396
1186.11  36.989  23.427
1186.61  36.989  23.396
1187.11  36.989  23.396
1187.61  36.989  23.396
1188.11  37.053  23.396
1188.61  36.989  23.427
1189.11  37.053  23.366
1189.61  36.989  23.396
1190.11  36.989  23.427
1190.61  36.989  23.396
1191.11  37.053  23.396
1191.61  36.925  23.458
1192.11  36.989  23.427
1192.61  37.053  23.396
1193.11  36.989  23.366
1193.61  36.989  23.427
1194.11  37.053  23.396
1194.61  36.989  23.396
1195.11  37.053  23.427
1195.61  37.053  23.396
1196.11  36.989  23.427
1196.61  37.053  23.396
1197.11  37.053  23.458
1197.61  36.989  23.396
1198.11  37.053  23.427
1198.61  36.925  23.396
1199.11  37.053  23.396
1199.61  37.053  23.427
1200.11  37.053  23.427
1200.61  37.053  23.396
1201.11  37.053  23.396
1201.61  36.989  23.396
1202.11  37.053  23.396
1202.61  37.053  23.396
1203.11  37.053  23.396
1203.61  37.053  23.427
1204.11  36.989  23.458
1204.61  37.053  23.396
1205.11  37.053  23.396
1205.61  37.053  23.427
1206.11  37.053  23.366
1206.61  37.053  23.396
1207.11  37.053  23.427
1207.61  37.053  23.396
1208.11  36.989  23.458
1208.61  36.989  23.366
1209.11  37.053  23.396
1209.61  37.053  23.396
1210.11  37.053  23.396
1210.61  37.053  23.427
1211.11  36.989  23.427
1211.61  37.053  23.366
1212.11  37.053  23.396
1212.61  36.989  23.396
1213.11  37.053  23.427
1213.61  37.053  23.427
1214.11  37.053  23.396
1214.61  37.053  23.458
1215.11  37.053  23.396
1215.61  37.053  23.396
1216.11  37.053  23.396
1216.61  37.053  23.427
1217.11  36.989  23.396
1217.61  37.053  23.427
1218.11  37.053  23.427
1218.61  37.053  23.427
1219.11  37.117  23.366
1219.61  37.117  23.366
1220.11  37.053  23.396
1220.61  37.053  23.427
1221.11  37.053  23.396
1221.61  37.117  23.427
1222.11  37.053  23.427
1222.61  37.053  23.396
1223.11  37.053  23.366
1223.61  37.053  23.427
1224.11  37.117  23.427
1224.61  37.117  23.396
1225.11  36.989  23.427
1225.61  37.117  23.366
1226.11  37.181  23.427
1226.61  37.117  23.427
1227.11  37.053  23.427
1227.61  37.117  23.427
1228.11  37.053  23.427
1228.61  37.117  23.427
1229.11  37.117  23.427
1229.61  37.117  23.396
1230.11  37.117  23.427
1230.61  37.117  23.427
1231.11  37.117  23.396
1231.61  37.117  23.427
1232.11  37.117  23.427
1232.61  37.181  23.458
1233.11  37.117  23.396
1233.61  37.117  23.427
1234.11  37.117  23.489
1234.61  37.117  23.427
1235.11  37.117  23.458
1235.61  37.181  23.427
1236.11  37.181  23.427
1236.61  37.117  23.427
1237.11  37.181  23.427
1237.61  37.117  23.427
1238.11  37.117  23.458
1238.61  37.117  23.396
1239.11  37.181  23.427
1239.61  37.117  23.396
1240.11  37.117  23.427
1240.61  37.117  23.427
1241.11  37.117  23.396
1241.61  37.117  23.427
1242.11  37.181  23.427
1242.61  37.181  23.427
1243.11  37.117  23.396
1243.61  37.181  23.396
1244.11  37.181  23.366
1244.61  37.245  23.458
1245.11  37.181  23.427
1245.61  37.117  23.396
1246.11  37.181  23.396
1246.61  37.181  23.396
1247.11  37.181  23.427
1247.61  37.181  23.427
1248.11  37.181  23.427
1248.61  37.181  23.427
1249.11  37.117  23.427
1249.61  37.117  23.427
1250.11  37.181  23.427
1250.61  37.181  23.396
1251.11  37.181  23.427
1251.61  37.181  23.396
1252.11  37.245  23.396
1252.61  37.181  23.489
1253.11  37.245  23.396
1253.61  37.117  23.396
1254.11  37.181  23.396
1254.61  37.181  23.458
1255.11  37.117  23.427
1255.61  37.117  23.427
1256.11  37.181  23.427
1256.61  37.181  23.396
1257.11  37.373  23.396
1257.61  37.181  23.427
1258.11  37.181  23.427
1258.61  37.181  23.396
1259.11  37.245  23.396
1259.61  37.181  23.366
1260.11  37.181  23.396
1260.61  37.181  23.427
1261.11  37.181  23.396
1261.61  37.245  23.427
1262.11  37.181  23.427
1262.61  37.245  23.427
1263.11  37.117  23.396
1263.61  37.245  23.427
1264.11  37.181  23.427
1264.61  37.181  23.427
1265.11  37.181  23.427
1265.61  37.181  23.427
1266.11  37.181  23.427
1266.61  37.245  23.427
1267.11  37.181  23.427
1267.61  37.245  23.427
1268.11  37.181  23.427
1268.61  37.245  23.396
1269.11  37.245  23.427
1269.61  37.181  23.427
1270.11  37.245  23.396
1270.61  37.309  23.427
1271.11  37.245  23.458
1271.61  37.245  23.427
1272.11  37.181  23.458
1272.61  37.245  23.396
1273.11  37.245  23.427
1273.61  37.309  23.458
1274.11  37.181  23.427
1274.61  37.245  23.427
1275.11  37.245  23.396
1275.61  37.181  23.427
1276.11  37.245  23.396
1276.61  37.245  23.427
1277.11  37.309  23.458
1277.61  37.181  23.427
1278.11  37.245  23.458
1278.61  37.181  23.396
1279.11  37.245  23.489
1279.61  37.245  23.458
1280.11  37.245  23.427
1280.61  37.245  23.458
1281.11  37.245  23.427
1281.61  37.309  23.427
1282.11  37.181  23.427
1282.61  37.181  23.489
1283.11  37.181  23.427
1283.61  37.181  23.427
1284.11  37.245  23.427
1284.61  37.245  23.427
1285.11  37.181  23.427
1285.61  37.245  23.427
1286.11  37.181  23.427
1286.61  37.245  23.458
1287.11  37.309  23.458
1287.61  37.181  23.427
1288.11  37.309  23.458
1288.61  37.181  23.427
1289.11  37.373  23.427
1289.61  37.309  23.458
1290.11  37.245  23.427
1290.61  37.245  23.427
1291.11  37.245  23.427
1291.61  37.245  23.427
1292.12  37.309  23.458
1292.62  37.309  23.427
1293.12  37.181  23.458
1293.62  37.309  23.427
1294.12  37.309  23.427
1294.62  37.309  23.427
1295.12  37.245  23.396
1295.62  37.245  23.427
1296.12  37.309  23.489
1296.62  37.309  23.427
1297.12  37.245  23.427
1297.62  37.309  23.427
1298.12  37.181  23.427
1298.62  37.181  23.458
1299.12  37.309  23.427
1299.62  37.245  23.458
1300.12  37.245  23.427
1300.62  37.309  23.427
1301.12  37.309  23.396
1301.62  37.245  23.427
1302.12  37.309  23.458
1302.62  37.309  23.427
1303.12  37.309  23.427
1303.62  37.245  23.427
1304.12  37.309  23.427
1304.62  37.245  23.427
1305.12  37.309  23.427
1305.62  37.309  23.427
1306.12  37.373  23.458
1306.62  37.245  23.458
1307.12  37.309  23.458
1307.62  37.309  23.427
1308.12  37.309  23.427
1308.62  37.373  23.458
1309.12  37.309  23.427
1309.62  37.309  23.396
1310.12  37.309  23.427
1310.62  37.309  23.427
1311.12  37.309  23.427
1311.62  37.309  23.458
1312.12  37.309  23.427
1312.62  37.309  23.427
1313.12  37.245  23.427
1313.62  37.309  23.458
1314.12  37.309  23.427
1314.62  37.245  23.427
1315.12  37.309  23.427
1315.62  37.309  23.427
1316.12  37.373  23.427
1316.62  37.309  23.458
1317.12  37.437  23.427
1317.62  37.309  23.458
1318.12  37.309  23.458
1318.62  37.373  23.458
1319.12  37.309  23.427
1319.62  37.309  23.396
1320.12  37.373  23.489
1320.62  37.373  23.458
1321.12  37.309  23.396
1321.62  37.309  23.458
1322.12  37.181  23.427
1322.62  37.373  23.427
1323.12  37.309  23.458
1323.62  37.373  23.458
1324.12  37.437  23.458
1324.62  37.309  23.427
1325.12  37.309  23.458
1325.62  37.309  23.427
1326.12  37.373  23.427
1326.62  37.309  23.458
1327.12  37.309  23.396
1327.62  37.373  23.458
1328.12  37.373  23.489
1328.62  37.373  23.427
1329.12  37.309  23.458
1329.62  37.373  23.458
1330.12  37.373  23.427
1330.62  37.309  23.489
1331.12  37.245  23.458
1331.62  37.373  23.458
1332.12  37.245  23.427
1332.62  37.437  23.427
1333.12  37.437  23.427
1333.62  37.373  23.427
1334.12  37.373  23.458
1334.62  37.373  23.458
1335.12  37.309  23.458
1335.62  37.373  23.458
1336.12  37.309  23.396
1336.62  37.373  23.458
1337.12  37.373  23.458
1337.62  37.373  23.427
1338.12  37.309  23.458
1338.62  37.373  23.458
1339.12  37.373  23.458
1339.62  37.373  23.427
1340.12  37.373  23.458
1340.62  37.373  23.458
1341.12  37.373  23.458
1341.62  37.373  23.427
1342.12  37.373  23.458
1342.62  37.309  23.427
1343.12  37.373  23.427
1343.62  37.373  23.458
1344.12  37.373  23.427
1344.62  37.309  23.427
1345.12  37.437  23.427
1345.62  37.309  23.458
1346.12  37.373  23.458
1346.62  37.373  23.427
1347.12  37.373  23.458
1347.62  37.373  23.396
1348.12  37.437  23.458
1348.62  37.373  23.427
1349.12  37.437  23.458
1349.62  37.437  23.458
1350.12  37.373  23.458
1350.62  37.437  23.458
1351.12  37.373  23.427
1351.62  37.373  23.489
1352.12  37.373  23.458
1352.62  37.437  23.458
1353.12  37.373  23.489
1353.62  37.437  23.427
1354.12  37.437  23.427
1354.62  37.309  23.458
1355.12  37.373  23.458
1355.62  37.437  23.458
1356.12  37.373  23.458
1356.62  37.373  23.458
1357.12  37.437  23.427
1357.62  37.437  23.458
1358.12  37.437  23.427
1358.62  37.373  23.489
1359.12  37.373  23.458
1359.62  37.437  23.458
1360.12  37.373  23.458
1360.62  37.437  23.458
1361.12  37.501  23.427
1361.62  37.437  23.427
1362.12  37.373  23.427
1362.62  37.437  23.427
1363.12  37.437  23.458
1363.62  37.437  23.458
1364.12  37.437  23.458
1364.62  37.437  23.458
1365.12  37.373  23.458
1365.62  37.437  23.458
1366.12  37.373  23.458
1366.62  37.437  23.458
1367.12  37.565  23.458
1367.62  37.437  23.458
1368.12  37.437  23.489
1368.62  37.501  23.458
1369.12  37.437  23.489
1369.62  37.437  23.520
1370.12  37.437  23.458
1370.62  37.373  23.427
1371.12  37.437  23.458
1371.62  37.437  23.458
1372.12  37.501  23.489
1372.62  37.373  23.458
1373.12  37.437  23.458
1373.62  37.437  23.458
1374.12  37.437  23.458
1374.62  37.501  23.489
1375.12  37.437  23.458
1375.62  37.437  23.458
1376.12  37.437  23.427
1376.62  37.501  23.489
1377.12  37.501  23.458
1377.62  37.501  23.458
1378.12  37.501  23.427
1378.62  37.501  23.458
1379.12  37.501  23.489
1379.62  37.501  23.458
1380.12  37.501  23.458
1380.62  37.501  23.427
1381.12  37.501  23.427
1381.62  37.501  23.520
1382.12  37.565  23.458
1382.62  37.501  23.458
1383.12  37.501  23.458
1383.62  37.501  23.458
1384.12  37.437  23.458
1384.62  37.373  23.489
1385.12  37.437  23.458
1385.62  37.501  23.458
1386.12  37.501  23.458
1386.62  37.501  23.489
1387.12  37.501  23.489
1387.62  37.437  23.458
1388.12  37.501  23.489
1388.62  37.501  23.427
1389.12  37.501  23.458
1389.62  37.501  23.458
1390.12  37.501  23.489
1390.62  37.501  23.427
1391.12  37.437  23.489
1391.62  37.501  23.489
1392.12  37.501  23.458
1392.62  37.501  23.489
1393.12  37.501  23.458
1393.62  37.501  23.489
1394.12  37.565  23.458
1394.62  37.501  23.458
1395.12  37.501  23.458
1395.62  37.501  23.489
1396.12  37.437  23.489
1396.62  37.501  23.458
1397.12  37.501  23.458
1397.62  37.565  23.458
1398.12  37.565  23.489
1398.62  37.437  23.489
1399.12  37.437  23.458
1399.62  37.501  23.458
1400.12  37.437  23.458
1400.62  37.565  23.489
1401.12  37.501  23.489
1401.62  37.629  23.427
1402.12  37.501  23.458
1402.62  37.501  23.458
1403.12  37.501  23.458
1403.62  37.501  23.489
1404.12  37.501  23.489
1404.62  37.565  23.458
1405.12  37.565  23.458
1405.62  37.565  23.458
1406.12  37.565  23.458
1406.62  37.565  23.458
1407.12  37.437  23.427
1407.62  37.373  23.489
1408.12  37.501  23.520
1408.62  37.565  23.489
1409.12  37.501  23.458
1409.62  37.501  23.458
1410.12  37.501  23.489
1410.62  37.565  23.489
1411.12  37.501  23.489
1411.62  37.629  23.489
1412.12  37.565  23.520
1412.62  37.501  23.458
1413.12  37.501  23.458
1413.62  37.501  23.489
1414.12  37.565  23.489
1414.62  37.501  23.489
1415.12  37.501  23.458
1415.62  37.501  23.489
1416.13  37.565  23.458
1416.63  37.565  23.458
1417.13  37.629  23.489
1417.63  37.501  23.489
1418.13  37.565  23.458
1418.63  37.501  23.458
1419.13  37.501  23.458
1419.63  37.565  23.489
1420.13  37.565  23.489
1420.63  37.565  23.489
1421.13  37.565  23.458
1421.63  37.565  23.458
1422.13  37.565  23.489
1422.63  37.565  23.489
1423.13  37.565  23.489
1423.63  37.501  23.458
1424.13  37.437  23.458
1424.63  37.565  23.458
1425.13  37.501  23.489
1425.63  37.629  23.458
1426.13  37.437  23.489
1426.63  37.565  23.520
1427.13  37.629  23.489
1427.63  37.565  23.458
1428.13  37.501  23.427
1428.63  37.501  23.489
1429.13  37.565  23.458
1429.63  37.565  23.427
1430.13  37.629  23.489
1430.63  37.629  23.489
1431.13  37.565  23.489
1431.63  37.629  23.489
1432.13  37.501  23.458
1432.63  37.565  23.489
1433.13  37.629  23.458
1433.63  37.565  23.489
1434.13  37.565  23.489
1434.63  37.565  23.489
1435.13  37.629  23.458
1435.63  37.565  23.458
1436.13  37.565  23.489
1436.63  37.629  23.489
1437.13  37.565  23.489
1437.63  37.565  23.489
1438.13  37.565  23.458
1438.63  37.501  23.489
1439.13  37.693  23.489
1439.63  37.565  23.458
1440.13  37.629  23.489
1440.63  37.565  23.489
1441.13  37.629  23.489
1441.63  37.565  23.520
1442.13  37.565  23.489
1442.63  37.565  23.489
1443.13  37.629  23.489
1443.63  37.629  23.489
1444.13  37.565  23.489
1444.63  37.629  23.458
1445.13  37.501  23.458
1445.63  37.565  23.489
1446.13  37.565  23.489
1446.63  37.629  23.489
1447.13  37.629  23.489
1447.63  37.629  23.489
1448.13  37.629  23.489
1448.63  37.565  23.489
1449.13  37.565  23.489
1449.63  37.629  23.489
1450.13  37.629  23.489
1450.63  37.565  23.458
1451.13  37.629  23.489
1451.63  37.821  23.489
1452.13  37.629  23.489
1452.63  37.629  23.520
1453.13  37.629  23.489
1453.63  37.629  23.458
1454.13  37.565  23.520
1454.63  37.565  23.489
1455.13  37.693  23.458
1455.63  37.629  23.458
1456.13  37.629  23.489
1456.63  37.565  23.489
1457.13  37.693  23.489
1457.63  37.629  23.489
1458.13  37.693  23.489
1458.63  37.629  23.489
1459.13  37.629  23.520
1459.63  37.757  23.489
1460.13  37.629  23.489
1460.63  37.629  23.550
1461.13  37.565  23.489
1461.63  37.629  23.520
1462.13  37.693  23.489
1462.63  37.693  23.489
1463.13  37.629  23.489
1463.63  37.629  23.520
1464.13  37.565  23.520
1464.63  37.629  23.458
1465.13  37.629  23.489
1465.63  37.629  23.489
1466.13  37.693  23.489
1466.63  37.629  23.489
1467.13  37.693  23.520
1467.63  37.629  23.458
1468.13  37.693  23.520
1468.63  37.629  23.489
1469.13  37.629  23.489
1469.63  37.565  23.489
1470.13  37.629  23.489
1470.63  37.693  23.458
1471.13  37.693  23.458
1471.63  37.693  23.458
1472.13  37.629  23.489
1472.63  37.629  23.489
1473.13  37.693  23.489
1473.63  37.629  23.520
1474.13  37.629  23.489
1474.63  37.629  23.489
1475.13  37.693  23.458
1475.63  37.693  23.520
1476.13  37.565  23.489
1476.63  37.629  23.520
1477.13  37.629  23.489
1477.63  37.693  23.520
1478.13  37.693  23.489
1478.63  37.629  23.489
1479.13  37.693  23.489
1479.63  37.629  23.520
1480.13  37.693  23.458
1480.63  37.629  23.520
1481.13  37.693  23.520
1481.63  37.629  23.427
1482.13  37.565  23.520
1482.63  37.629  23.520
1483.13  37.693  23.458
1483.63  37.629  23.489
1484.13  37.693  23.520
1484.63  37.693  23.489
1485.13  37.629  23.520
1485.63  37.629  23.520
1486.13  37.693  23.520
1486.63  37.693  23.520
1487.13  37.693  23.520
1487.63  37.629  23.520
1488.13  37.821  23.489
1488.63  37.693  23.489
1489.13  37.693  23.489
1489.63  37.629  23.489
1490.13  37.629  23.489
1490.63  37.693  23.489
1491.13  37.693  23.489
1491.63  37.693  23.489
1492.13  37.629  23.489
1492.63  37.693  23.458
1493.13  37.693  23.520
1493.63  37.693  23.520
1494.13  37.693  23.489
1494.63  37.629  23.489
1495.13  37.693  23.489
1495.63  37.757  23.489
1496.13  37.757  23.489
1496.63  37.693  23.489
1497.13  37.693  23.520
1497.63  37.629  23.489
1498.13  37.693  23.520
1498.63  37.757  23.489
1499.13  37.565  23.489
1499.63  37.693  23.489
1500.13  37.757  23.520
1500.63  37.693  23.520
1501.13  37.757  23.458
1501.63  37.757  23.489
1502.13  37.629  23.489
1502.63  37.757  23.458
1503.13  37.693  23.550
1503.63  37.693  23.489
1504.13  37.693  23.550
1504.63  37.757  23.520
1505.13  37.757  23.520
1505.63  37.757  23.520
1506.13  37.693  23.520
1506.63  37.757  23.489
1507.13  37.757  23.489
1507.63  37.757  23.520
1508.13  37.757  23.520
1508.63  37.693  23.489
1509.13  37.693  23.520
1509.63  37.757  23.520
1510.13  37.757  23.489
1510.63  37.885  23.489
1511.13  37.757  23.581
1511.63  37.757  23.520
1512.13  37.757  23.520
1512.63  37.693  23.489
1513.13  37.629  23.520
1513.63  37.757  23.489
1514.13  37.693  23.520
1514.63  37.629  23.520
1515.13  37.757  23.550
1515.63  37.693  23.489
1516.13  37.757  23.520
1516.63  37.757  23.489
1517.13  37.757  23.520
1517.63  37.757  23.520
1518.13  37.757  23.489
1518.63  37.757  23.520
1519.13  37.757  23.520
1519.63  37.757  23.489
1520.13  37.757  23.520
1520.63  37.757  23.520
1521.13  37.757  23.489
1521.63  37.757  23.489
1522.13  37.629  23.489
1522.63  37.821  23.520
1523.13  37.757  23.520
1523.63  37.821  23.458
1524.13  37.821  23.520
1524.63  37.693  23.520
1525.13  37.757  23.520
1525.63  37.757  23.520
1526.13  37.821  23.550
1526.63  37.757  23.489
1527.13  37.757  23.458
1527.63  37.757  23.520
1528.13  37.821  23.520
1528.63  37.757  23.489
1529.13  37.821  23.520
1529.64  37.757  23.550
1530.14  37.821  23.489
1530.64  37.885  23.520
1531.14  37.757  23.489
1531.64  37.821  23.489
1532.14  37.821  23.520
1532.64  37.757  23.520
1533.14  37.757  23.520
1533.64  37.693  23.520
1534.14  37.821  23.520
1534.64  37.693  23.489
1535.14  37.949  23.520
1535.64  37.757  23.489
1536.14  37.757  23.520
1536.64  37.821  23.550
1537.14  37.693  23.550
1537.64  37.757  23.489
1538.14  37.757  23.458
1538.64  37.757  23.458
1539.14  37.757  23.489
1539.64  37.821  23.550
1540.14  37.757  23.520
1540.64  37.821  23.520
1541.14  37.757  23.520
1541.64  37.757  23.427
1542.14  37.757  23.520
1542.64  37.821  23.520
1543.14  37.821  23.520
1543.64  37.821  23.520
1544.14  37.757  23.550
1544.64  37.757  23.550
1545.14  37.757  23.520
1545.64  37.821  23.489
1546.14  37.821  23.489
1546.64  37.821  23.489
1547.14  37.757  23.520
1547.64  37.821  23.520
1548.14  37.757  23.520
1548.64  37.821  23.520
1549.14  37.821  23.520
1549.64  37.821  23.520
1550.14  37.821  23.520
1550.64  37.821  23.550
1551.14  37.821  23.489
1551.64  37.821  23.520
1552.14  37.821  23.489
1552.64  37.757  23.520
1553.14  37.757  23.520
1553.64  37.821  23.520
1554.14  37.821  23.520
1554.64  37.821  23.520
1555.14  37.821  23.520
1555.64  37.821  23.520
1556.14  37.757  23.520
1556.64  37.821  23.520
1557.14  37.821  23.520
1557.64  37.693  23.520
1558.14  37.821  23.520
1558.64  38.013  23.550
1559.14  37.821  23.520
1559.64  37.757  23.489
1560.14  37.821  23.520
1560.64  37.821  23.489
1561.14  37.821  23.520
1561.64  37.821  23.520
1562.14  37.821  23.489
1562.64  37.885  23.520
1563.14  37.821  23.520
1563.64  37.821  23.520
1564.14  37.757  23.520
1564.64  37.821  23.520
1565.14  37.821  23.550
1565.64  37.885  23.520
1566.14  37.821  23.550
1566.64  37.821  23.581
1567.14  37.821  23.520
1567.64  37.821  23.550
1568.14  38.013  23.550
1568.64  37.885  23.581
1569.14  37.821  23.520
1569.64  37.821  23.550
1570.14  37.821  23.520
1570.64  37.821  23.520
1571.14  37.821  23.520
1571.64  37.821  23.520
1572.14  37.821  23.520
1572.64  37.821  23.520
1573.14  37.821  23.550
1573.64  37.821  23.520
1574.14  37.821  23.520
1574.64  37.757  23.550
1575.14  37.821  23.520
1575.64  37.885  23.520
1576.14  37.885  23.520
1576.64  37.821  23.550
1577.14  37.821  23.520
1577.64  37.821  23.520
1578.14  37.821  23.489
1578.64  37.821  23.520
1579.14  37.821  23.489
1579.64  37.885  23.581
1580.14  37.757  23.520
1580.64  37.821  23.550
1581.14  37.757  23.550
1581.64  37.821  23.550
1582.14  37.821  23.550
1582.64  37.821  23.520
1583.14  37.821  23.550
1583.64  37.821  23.550
1584.14  37.757  23.489
1584.64  37.821  23.520
1585.14  37.885  23.550
1585.64  37.821  23.489
1586.14  37.757  23.520
1586.64  37.821  23.581
1587.14  37.757  23.520
1587.64  37.949  23.520
1588.14  37.885  23.520
1588.64  37.821  23.550
1589.14  37.821  23.520
1589.64  37.821  23.520
1590.14  37.821  23.520
1590.64  37.821  23.550
1591.14  37.821  23.520
1591.64  37.821  23.520
1592.14  37.757  23.520
1592.64  37.757  23.520
1593.14  37.821  23.520
1593.64  37.821  23.550
1594.14  37.949  23.520
1594.64  37.821  23.489
1595.14  37.821  23.520
1595.64  37.885  23.520
1596.14  37.821  23.550
1596.64  37.693  23.520
1597.14  37.757  23.520
1597.64  37.757  23.489
1598.14  37.757  23.520
1598.64  37.885  23.520
1599.14  37.821  23.520
1599.64  37.757  23.520
1600.14  37.821  23.550
1600.64  37.821  23.520
1601.14  37.821  23.550
1601.64  37.821  23.581
1602.14  37.821  23.550
1602.64  37.821  23.520
1603.14  37.757  23.520
1603.64  37.821  23.520
1604.14  37.885  23.550
1604.64  37.821  23.520
1605.14  37.885  23.550
1605.64  37.821  23.581
1606.14  37.885  23.520
1606.64  37.821  23.550
1607.14  37.821  23.520
1607.64  37.885  23.581
1608.14  37.821  23.550
1608.64  37.885  23.550
1609.14  37.885  23.550
1609.64  37.885  23.520
1610.14  37.821  23.550
1610.64  37.885  23.550
1611.14  37.885  23.550
1611.64  37.821  23.550
1612.14  37.821  23.520
1612.64  37.885  23.550
1613.14  37.949  23.550
1613.64  37.885  23.520
1614.14  37.949  23.550
1614.64  37.821  23.520
1615.14  37.885  23.520
1615.64  37.885  23.520
1616.14  37.757  23.550
1616.64  37.757  23.520
1617.14  37.885  23.520
1617.64  37.885  23.550
1618.14  37.885  23.520
1618.64  37.821  23.520
1619.14  37.885  23.520
1619.64  37.885  23.550
1620.14  37.821  23.550
1620.64  37.885  23.520
1621.14  37.885  23.581
1621.64  37.885  23.550
1622.14  37.885  23.550
1622.64  37.949  23.550
1623.14  37.885  23.520
1623.64  37.949  23.550
1624.14  37.885  23.550
1624.64  37.885  23.489
1625.14  37.885  23.581
1625.64  37.949  23.489
1626.14  37.885  23.550
1626.64  37.885  23.520
1627.14  37.949  23.550
1627.64  37.885  23.550
1628.14  37.757  23.550
1628.64  37.885  23.520
1629.14  37.885  23.550
1629.64  37.885  23.520
1630.14  37.885  23.550
1630.64  37.885  23.550
1631.14  37.885  23.550
1631.64  37.885  23.581
1632.14  37.885  23.550
1632.64  37.885  23.550
1633.14  37.885  23.550
1633.64  37.885  23.550
1634.14  37.885  23.550
1634.64  37.949  23.550
1635.14  37.949  23.550
1635.64  37.885  23.550
1636.14  38.013  23.550
1636.64  37.885  23.520
1637.14  37.949  23.550
1637.64  37.885  23.520
1638.14  37.949  23.520
1638.64  37.885  23.550
1639.14  37.949  23.550
1639.64  37.949  23.550
1640.14  37.949  23.581
1640.64  37.949  23.550
1641.14  37.949  23.520
1641.64  37.949  23.550
1642.14  37.885  23.581
1642.65  37.949  23.550
1643.15  37.821  23.550
1643.65  37.949  23.520
1644.15  37.949  23.520
1644.65  37.885  23.550
1645.15  37.885  23.550
1645.65  37.949  23.550
1646.15  37.949  23.550
1646.65  38.013  23.550
1647.15  37.949  23.520
1647.65  37.949  23.550
1648.15  37.949  23.550
1648.65  37.821  23.550
1649.15  37.885  23.581
1649.65  37.949  23.550
1650.15  37.949  23.550
1650.65  37.949  23.581
1651.15  38.077  23.581
1651.65  37.885  23.520
1652.15  37.949  23.581
1652.65  37.949  23.550
1653.15  37.949  23.550
1653.65  37.949  23.550
1654.15  37.949  23.581
1654.65  37.949  23.550
1655.15  37.949  23.550
1655.65  37.949  23.550
1656.15  38.013  23.550
1656.65  37.949  23.581
1657.15  38.013  23.520
1657.65  38.013  23.550
1658.15  37.949  23.550
1658.65  37.949  23.520
1659.15  38.077  23.550
1659.65  38.013  23.550
1660.15  37.949  23.550
1660.65  37.949  23.550
1661.15  37.949  23.550
1661.65  37.949  23.581
1662.15  37.949  23.550
1662.65  37.949  23.550
1663.15  37.821  23.550
1663.65  37.949  23.520
1664.15  37.949  23.520
1664.65  38.013  23.550
1665.15  37.885  23.550
1665.65  37.949  23.581
1666.15  37.949  23.520
1666.65  38.013  23.550
1667.15  37.949  23.550
1667.65  37.949  23.550
1668.15  38.077  23.581
1668.65  37.949  23.581
1669.15  37.949  23.550
1669.65  38.013  23.581
1670.15  38.013  23.581
1670.65  38.013  23.550
1671.15  38.013  23.550
1671.65  38.013  23.520
1672.15  38.013  23.550
1672.65  38.013  23.550
1673.15  37.949  23.550
1673.65  38.013  23.550
1674.15  37.885  23.550
1674.65  38.013  23.581
1675.15  37.949  23.550
1675.65  38.013  23.520
1676.15  38.013  23.489
1676.65  38.013  23.581
1677.15  38.013  23.550
1677.65  38.013  23.520
1678.15  38.013  23.550
1678.65  38.013  23.520
1679.15  37.949  23.581
1679.65  38.077  23.550
1680.15  38.013  23.550
1680.65  38.013  23.550
1681.15  37.949  23.520
1681.65  38.013  23.550
1682.15  37.949  23.612
1682.65  38.013  23.550
1683.15  38.077  23.550
1683.65  38.013  23.489
1684.15  38.077  23.550
1684.65  38.013  23.550
1685.15  37.885  23.581
1685.65  38.013  23.520
1686.15  38.013  23.581
1686.65  37.949  23.550
1687.15  37.949  23.550
1687.65  38.077  23.550
1688.15  38.077  23.520
1688.65  38.013  23.550
1689.15  38.013  23.581
1689.65  38.013  23.550
1690.15  38.013  23.581
1690.65  38.013  23.612
1691.15  38.013  23.581
1691.65  38.013  23.581
1692.15  38.013  23.550
1692.65  38.013  23.550
1693.15  37.949  23.550
1693.65  38.077  23.581
1694.15  38.013  23.581
1694.65  37.949  23.581
1695.15  37.949  23.550
1695.65  38.013  23.550
1696.15  38.013  23.581
1696.65  38.013  23.581
1697.15  37.949  23.581
1697.65  38.077  23.550
1698.15  38.013  23.550
1698.65  38.013  23.550
1699.15  38.013  23.550
1699.65  37.949  23.612
1700.15  38.013  23.581
1700.65  38.077  23.581
1701.15  38.013  23.581
1701.65  38.077  23.612
1702.15  38.013  23.581
1702.65  38.077  23.550
1703.15  37.949  23.550
1703.65  38.013  23.581
1704.15  38.013  23.581
1704.65  38.013  23.581
1705.15  37.949  23.581
1705.65  38.077  23.612
1706.15  38.013  23.520
1706.65  38.077  23.550
1707.15  38.077  23.550
1707.65  38.077  23.581
1708.15  38.077  23.581
1708.65  38.077  23.581
1709.15  38.013  23.581
1709.65  38.077  23.612
1710.15  38.077  23.581
1710.65  38.077  23.581
1711.15  38.077  23.581
1711.65  38.013  23.550
1712.15  38.077  23.550
1712.65  38.013  23.550
1713.15  38.077  23.612
1713.65  38.077  23.581
1714.15  38.141  23.581
1714.65  38.077  23.581
1715.15  38.013  23.550
1715.65  38.077  23.581
1716.15  38.077  23.581
1716.65  38.077  23.581
1717.15  38.077  23.550
1717.65  38.077  23.581
1718.15  38.013  23.550
1718.65  38.013  23.550
1719.15  38.077  23.581
1719.65  38.077  23.643
1720.15  38.141  23.581
1720.65  38.077  23.550
1721.15  38.077  23.550
1721.65  38.077  23.581
1722.15  38.077  23.581
1722.65  38.077  23.581
1723.15  38.077  23.550
1723.65  38.013  23.550
1724.15  38.077  23.581
1724.65  38.141  23.550
1725.15  38.077  23.550
1725.65  38.141  23.550
1726.15  38.077  23.581
1726.65  38.077  23.581
1727.15  38.077  23.581
1727.65  38.141  23.550
1728.15  38.077  23.581
1728.65  38.141  23.581
1729.15  38.141  23.581
1729.65  38.141  23.550
1730.15  38.269  23.581
1730.65  38.077  23.581
1731.15  38.077  23.550
1731.65  38.141  23.550
1732.15  38.077  23.581
1732.65  38.077  23.581
1733.15  38.141  23.612
1733.65  38.205  23.550
1734.15  38.205  23.581
1734.65  38.141  23.581
1735.15  38.077  23.550
1735.65  38.141  23.550
1736.15  38.141  23.550
1736.65  38.077  23.581
1737.15  38.077  23.581
1737.65  38.077  23.612
1738.15  37.949  23.581
1738.65  38.141  23.581
1739.15  38.077  23.581
1739.65  38.141  23.581
1740.15  38.205  23.581
1740.65  38.141  23.581
1741.15  38.141  23.581
1741.65  38.205  23.550
1742.15  38.141  23.581
1742.65  38.077  23.612
1743.15  38.141  23.550
1743.65  38.141  23.581
1744.15  38.205  23.581
1744.65  38.141  23.581
1745.15  38.077  23.612
1745.65  38.141  23.581
1746.15  38.141  23.612
1746.65  38.141  23.581
1747.15  38.077  23.581
1747.65  38.205  23.581
1748.15  38.205  23.550
1748.65  38.141  23.581
1749.15  38.141  23.581
1749.65  38.141  23.581
1750.15  38.269  23.612
1750.65  38.205  23.581
1751.15  38.205  23.581
1751.65  38.205  23.581
1752.15  38.205  23.581
1752.65  38.141  23.612
1753.15  38.141  23.581
1753.65  38.205  23.581
1754.15  38.141  23.581
1754.65  38.077  23.550
1755.15  38.077  23.643
1755.66  38.141  23.581
1756.16  38.205  23.520
1756.66  38.141  23.612
1757.16  38.141  23.550
1757.66  38.141  23.643
1758.16  38.269  23.612
1758.66  38.141  23.612
1759.16  38.141  23.581
1759.66  38.141  23.581
1760.16  38.205  23.581
1760.66  38.205  23.581
1761.16  38.205  23.581
1761.66  38.205  23.550
1762.16  38.205  23.581
1762.66  38.141  23.581
1763.16  38.205  23.612
1763.66  38.141  23.581
1764.16  38.205  23.581
1764.66  38.205  23.612
1765.16  38.205  23.581
1765.66  38.205  23.581
1766.16  38.269  23.581
1766.66  38.141  23.581
1767.16  38.141  23.612
1767.66  38.269  23.612
1768.16  38.141  23.581
1768.66  38.205  23.550
1769.16  38.333  23.581
1769.66  38.141  23.550
1770.16  38.205  23.581
1770.66  38.205  23.581
1771.16  38.205  23.612
1771.66  38.141  23.581
1772.16  38.205  23.581
1772.66  38.141  23.643
1773.16  38.205  23.581
1773.66  38.205  23.612
1774.16  38.205  23.612
1774.66  38.205  23.612
1775.16  38.205  23.581
1775.66  38.205  23.520
1776.16  38.205  23.612
1776.66  38.205  23.581
1777.16  38.205  23.550
1777.66  38.269  23.581
1778.16  38.141  23.612
1778.66  38.141  23.581
1779.16  38.205  23.581
1779.66  38.333  23.581
1780.16  38.205  23.581
1780.66  38.205  23.581
1781.16  38.205  23.581
1781.66  38.269  23.612
1782.16  38.205  23.581
1782.66  38.141  23.581
1783.16  38.205  23.581
1783.66  38.205  23.581
1784.16  38.205  23.612
1784.66  38.269  23.581
1785.16  38.269  23.612
1785.66  38.205  23.612
1786.16  38.205  23.612
1786.66  38.205  23.612
1787.16  38.269  23.581
1787.66  38.205  23.612
1788.16  38.205  23.612
1788.66  38.269  23.581
1789.16  38.269  23.581
1789.66  38.205  23.581
1790.16  38.269  23.612
1790.66  38.269  23.612
1791.16  38.269  23.612
1791.66  38.205  23.581
1792.16  38.269  23.612
1792.66  38.205  23.581
1793.16  38.269  23.612
1793.66  38.269  23.581
1794.16  38.269  23.612
1794.66  38.269  23.581
1795.16  38.205  23.612
1795.66  38.141  23.612
1796.16  38.269  23.581
1796.66  38.269  23.581
1797.16  38.269  23.581
1797.66  38.333  23.612
1798.16  38.205  23.581
1798.66  38.205  23.612
1799.16  38.269  23.550
1799.66  38.269  23.581
1800.16  38.205  23.581
1800.66  38.269  23.581
1801.16  38.333  23.612
1801.66  38.269  23.581
1802.16  38.269  23.581
1802.66  38.205  23.581
1803.16  38.269  23.612
1803.66  38.269  23.612
1804.16  38.269  23.643
1804.66  38.205  23.643
1805.16  38.333  23.581
1805.66  38.205  23.643
1806.16  38.269  23.581
1806.66  38.205  23.674
1807.16  38.141  23.612
1807.66  38.269  23.581
1808.16  38.205  23.612
1808.66  38.269  23.612
1809.16  38.269  23.612
1809.66  38.269  23.581
1810.16  38.205  23.581
1810.66  38.205  23.581
1811.16  38.205  23.612
1811.66  38.269  23.612
1812.16  38.269  23.612
1812.66  38.269  23.612
1813.16  38.269  23.612
1813.66  38.269  23.612
1814.16  38.269  23.612
1814.66  38.205  23.581
1815.16  38.205  23.612
1815.66  38.205  23.550
1816.16  38.269  23.581
1816.66  38.205  23.612
1817.16  38.205  23.581
1817.66  38.269  23.612
1818.16  38.269  23.612
1818.66  38.269  23.612
1819.16  38.269  23.643
1819.66  38.269  23.612
1820.16  38.205  23.612
1820.66  38.269  23.581
1821.16  38.269  23.581
1821.66  38.333  23.612
1822.16  38.333  23.612
1822.66  38.269  23.643
1823.16  38.205  23.581
1823.66  38.269  23.612
1824.16  38.333  23.643
1824.66  38.205  23.581
1825.16  38.269  23.612
1825.66  38.269  23.612
1826.16  38.141  23.581
1826.66  38.269  23.581
1827.16  38.333  23.612
1827.66  38.269  23.612
1828.16  38.269  23.581
1828.66  38.397  23.612
1829.16  38.333  23.612
1829.66  38.333  23.643
1830.16  38.269  23.643
1830.66  38.333  23.612
1831.16  38.269  23.612
1831.66  38.269  23.612
1832.16  38.269  23.612
1832.66  38.269  23.581
1833.16  38.333  23.612
1833.66  38.269  23.643
1834.16  38.333  23.643
1834.66  38.333  23.612
1835.16  38.333  23.612
1835.66  38.333  23.612
1836.16  38.333  23.612
1836.66  38.461  23.612
1837.16  38.333  23.612
1837.66  38.333  23.612
1838.16  38.333  23.612
1838.66  38.333  23.643
1839.16  38.333  23.581
1839.66  38.269  23.581
1840.16  38.269  23.612
1840.66  38.269  23.643
1841.16  38.333  23.612
1841.66  38.269  23.612
1842.16  38.333  23.581
1842.66  38.333  23.674
1843.16  38.333  23.612
1843.66  38.269  23.612
1844.16  38.333  23.643
1844.66  38.333  23.612
1845.16  38.333  23.643
1845.66  38.333  23.643
1846.16  38.269  23.612
1846.66  38.333  23.612
1847.16  38.333  23.612
1847.66  38.333  23.643
1848.16  38.333  23.612
1848.66  38.397  23.612
1849.16  38.333  23.612
1849.66  38.333  23.581
1850.16  38.333  23.612
1850.66  38.333  23.612
1851.16  38.333  23.612
1851.66  38.333  23.612
1852.16  38.333  23.612
1852.66  38.333  23.612
1853.16  38.333  23.643
1853.66  38.397  23.612
1854.16  38.333  23.612
1854.66  38.333  23.612
1855.16  38.333  23.643
1855.66  38.333  23.643
1856.16  38.269  23.612
1856.66  38.333  23.643
1857.16  38.333  23.643
1857.66  38.333  23.612
1858.16  38.397  23.643
1858.66  38.461  23.612
1859.16  38.333  23.612
1859.66  38.333  23.612
1860.16  38.333  23.643
1860.66  38.269  23.612
1861.16  38.333  23.612
1861.66  38.333  23.612
1862.16  38.397  23.612
1862.66  38.333  23.643
1863.16  38.333  23.612
1863.66  38.269  23.674
1864.16  38.333  23.612
1864.66  38.397  23.674
1865.16  38.397  23.643
1865.66  38.397  23.643
1866.16  38.333  23.612
1866.66  38.269  23.674
1867.16  38.397  23.643
1867.66  38.333  23.612
1868.16  38.333  23.643
1868.66  38.397  23.612
1869.17  38.333  23.612
1869.67  38.333  23.581
1870.17  38.397  23.643
1870.67  38.333  23.581
1871.17  38.333  23.643
1871.67  38.333  23.612
1872.17  38.333  23.612
1872.67  38.397  23.612
1873.17  38.333  23.612
1873.67  38.333  23.612
1874.17  38.397  23.612
1874.67  38.397  23.643
1875.17  38.333  23.643
1875.67  38.333  23.612
1876.17  38.397  23.612
1876.67  38.269  23.674
1877.17  38.397  23.581
1877.67  38.333  23.612
1878.17  38.269  23.643
1878.67  38.461  23.581
1879.17  38.397  23.643
1879.67  38.397  23.612
1880.17  38.397  23.643
1880.67  38.269  23.643
1881.17  38.461  23.674
1881.67  38.461  23.643
1882.17  38.333  23.643
1882.67  38.333  23.643
1883.17  38.333  23.612
1883.67  38.397  23.643
1884.17  38.397  23.612
1884.67  38.397  23.612
1885.17  38.397  23.674
1885.67  38.397  23.643
1886.17  38.397  23.643
1886.67  38.397  23.612
1887.17  38.397  23.643
1887.67  38.397  23.612
1888.17  38.461  23.643
1888.67  38.333  23.643
1889.17  38.397  23.643
1889.67  38.461  23.643
1890.17  38.397  23.643
1890.67  38.461  23.643
1891.17  38.397  23.643
1891.67  38.397  23.643
1892.17  38.397  23.612
1892.67  38.397  23.643
1893.17  38.397  23.612
1893.67  38.333  23.612
1894.17  38.461  23.643
1894.67  38.397  23.612
1895.17  38.397  23.674
1895.67  38.397  23.612
1896.17  38.397  23.643
1896.67  38.397  23.674
1897.17  38.461  23.643
1897.67  38.397  23.643
1898.17  38.525  23.612
1898.67  38.397  23.612
1899.17  38.333  23.643
1899.67  38.461  23.643
1900.17  38.461  23.643
1900.67  38.397  23.643
1901.17  38.397  23.643
1901.67  38.525  23.643
1902.17  38.397  23.643
1902.67  38.397  23.643
1903.17  38.397  23.612
1903.67  38.397  23.643
1904.17  38.397  23.643
1904.67  38.397  23.581
1905.17  38.333  23.643
1905.67  38.397  23.643
1906.17  38.461  23.643
1906.67  38.461  23.612
1907.17  38.461  23.612
1907.67  38.461  23.643
1908.17  38.397  23.612
1908.67  38.461  23.612
1909.17  38.397  23.674
1909.67  38.397  23.643
1910.17  38.461  23.705
1910.67  38.397  23.612
1911.17  38.397  23.643
1911.67  38.461  23.643
1912.17  38.397  23.643
1912.67  38.461  23.643
1913.17  38.461  23.643
1913.67  38.461  23.705
1914.17  38.461  23.674
1914.67  38.461  23.643
1915.17  38.461  23.643
1915.67  38.397  23.643
1916.17  38.461  23.612
1916.67  38.525  23.643
1917.17  38.397  23.643
1917.67  38.461  23.643
1918.17  38.397  23.612
1918.67  38.525  23.643
1919.17  38.525  23.643
1919.67  38.461  23.643
1920.17  38.525  23.643
1920.67  38.397  23.643
1921.17  38.589  23.643
1921.67  38.461  23.643
1922.17  38.525  23.612
1922.67  38.525  23.674
1923.17  38.461  23.643
1923.67  38.461  23.643
1924.17  38.461  23.581
1924.67  38.461  23.643
1925.17  38.461  23.643
1925.67  38.525  23.643
1926.17  38.461  23.674
1926.67  38.525  23.643
1927.17  38.333  23.643
1927.67  38.397  23.674
1928.17  38.525  23.674
1928.67  38.461  23.643
1929.17  38.397  23.643
1929.67  38.461  23.674
1930.17  38.461  23.612
1930.67  38.525  23.674
1931.17  38.461  23.674
1931.67  38.525  23.643
1932.17  38.397  23.643
1932.67  38.525  23.612
1933.17  38.525  23.612
1933.67  38.461  23.581
1934.17  38.461  23.612
1934.67  38.397  23.643
1935.17  38.461  23.643
1935.67  38.525  23.643
1936.17  38.461  23.643
1936.67  38.461  23.674
1937.17  38.525  23.643
1937.67  38.397  23.674
1938.17  38.461  23.674
1938.67  38.525  23.643
1939.17  38.525  23.643
1939.67  38.525  23.643
1940.17  38.525  23.643
1940.67  38.525  23.612
1941.17  38.461  23.674
1941.67  38.525  23.612
1942.17  38.589  23.674
1942.67  38.461  23.674
1943.17  38.461  23.643
1943.67  38.461  23.674
1944.17  38.525  23.612
1944.67  38.525  23.674
1945.17  38.525  23.674
1945.67  38.461  23.612
1946.17  38.525  23.643
1946.67  38.461  23.643
1947.17  38.525  23.643
1947.67  38.525  23.643
1948.17  38.461  23.643
1948.67  38.525  23.674
1949.17  38.525  23.674
1949.67  38.461  23.643
1950.17  38.589  23.643
1950.67  38.525  23.643
1951.17  38.525  23.643
1951.67  38.525  23.643
1952.17  38.461  23.643
1952.67  38.461  23.643
1953.17  38.461  23.643
1953.67  38.461  23.643
1954.17  38.397  23.674
1954.67  38.525  23.643
1955.17  38.589  23.643
1955.67  38.461  23.643
1956.17  38.461  23.643
1956.67  38.589  23.643
1957.17  38.461  23.674
1957.67  38.589  23.674
1958.17  38.461  23.643
1958.67  38.461  23.674
1959.17  38.525  23.643
1959.67  38.525  23.643
1960.17  38.525  23.674
1960.67  38.525  23.612
1961.17  38.525  23.612
1961.67  38.525  23.705
1962.17  38.589  23.674
1962.67  38.589  23.643
1963.17  38.525  23.705
1963.67  38.525  23.643
1964.17  38.525  23.674
1964.67  38.525  23.643
1965.17  38.525  23.674
1965.67  38.525  23.674
1966.17  38.461  23.674
1966.67  38.589  23.674
1967.17  38.589  23.643
1967.67  38.461  23.643
1968.17  38.525  23.643
1968.67  38.525  23.643
1969.17  38.525  23.643
1969.67  38.525  23.643
1970.17  38.461  23.674
1970.67  38.525  23.643
1971.17  38.525  23.674
1971.67  38.525  23.643
1972.17  38.589  23.674
1972.67  38.589  23.643
1973.17  38.589  23.643
1973.67  38.461  23.643
1974.17  38.589  23.674
1974.67  38.525  23.674
1975.17  38.525  23.674
1975.67  38.525  23.643
1976.17  38.525  23.643
1976.67  38.525  23.674
1977.17  38.525  23.643
1977.67  38.525  23.643
1978.17  38.525  23.674
1978.67  38.461  23.643
1979.17  38.525  23.674
1979.67  38.653  23.674
1980.17  38.525  23.674
1980.67  38.525  23.674
1981.17  38.461  23.674
1981.67  38.589  23.674
1982.18  38.525  23.643
1982.68  38.525  23.674
1983.18  38.397  23.674
1983.68  38.525  23.674
1984.18  38.589  23.643
1984.68  38.525  23.705
1985.18  38.525  23.643
1985.68  38.525  23.674
1986.18  38.525  23.643
1986.68  38.525  23.674
1987.18  38.525  23.705
1987.68  38.525  23.705
1988.18  38.525  23.674
1988.68  38.525  23.705
1989.18  38.589  23.674
1989.68  38.525  23.643
1990.18  38.525  23.674
1990.68  38.589  23.674
1991.18  38.589  23.674
1991.68  38.525  23.643
1992.18  38.525  23.674
1992.68  38.589  23.705
1993.18  38.589  23.674
1993.68  38.589  23.643
1994.18  38.589  23.735
1994.68  38.589  23.643
1995.18  38.653  23.674
1995.68  38.589  23.674
1996.18  38.461  23.643
1996.68  38.589  23.674
1997.18  38.525  23.643
1997.68  38.525  23.705
1998.18  38.589  23.705
1998.68  38.589  23.674
1999.18  38.653  23.674
1999.68  38.589  23.643
2000.18  38.589  23.674
2000.68  38.525  23.643
2001.18  38.589  23.643
2001.68  38.589  23.674
2002.18  38.589  23.674
2002.68  38.525  23.705
2003.18  38.461  23.705
2003.68  38.589  23.674
2004.18  38.461  23.643
2004.68  38.589  23.674
2005.18  38.525  23.674
2005.68  38.525  23.674
2006.18  38.589  23.674
2006.68  38.525  23.674
2007.18  38.589  23.643
2007.68  38.717  23.705
2008.18  38.589  23.674
2008.68  38.589  23.674
2009.18  38.589  23.674
2009.68  38.589  23.674
2010.18  38.589  23.674
2010.68  38.589  23.643
2011.18  38.525  23.674
2011.68  38.653  23.674
2012.18  38.589  23.705
2012.68  38.589  23.705
2013.18  38.653  23.643
2013.68  38.589  23.674
2014.18  38.589  23.674
2014.68  38.525  23.674
2015.18  38.589  23.674
2015.68  38.589  23.674
2016.18  38.589  23.674
2016.68  38.589  23.643
2017.18  38.589  23.705
2017.68  38.589  23.674
2018.18  38.589  23.705
2018.68  38.589  23.674
2019.18  38.589  23.705
2019.68  38.525  23.643
2020.18  38.653  23.674
2020.68  38.461  23.674
2021.18  38.589  23.705
2021.68  38.525  23.674
2022.18  38.525  23.674
2022.68  38.525  23.705
2023.18  38.525  23.674
2023.68  38.589  23.674
2024.18  38.525  23.674
2024.68  38.525  23.674
2025.18  38.653  23.643
2025.68  38.653  23.674
2026.18  38.589  23.674
2026.68  38.589  23.643
2027.18  38.525  23.705
2027.68  38.589  23.674
2028.18  38.653  23.705
2028.68  38.717  23.643
2029.18  38.589  23.705
2029.68  38.653  23.674
2030.18  38.653  23.674
2030.68  38.461  23.643
2031.18  38.589  23.735
2031.68  38.589  23.674
2032.18  38.589  23.674
2032.68  38.653  23.674
2033.18  38.653  23.643
2033.68  38.589  23.705
2034.18  38.589  23.674
2034.68  38.653  23.674
2035.18  38.461  23.705
2035.68  38.653  23.674
2036.18  38.589  23.705
2036.68  38.653  23.674
2037.18  38.525  23.643
2037.68  38.589  23.643
2038.18  38.653  23.674
2038.68  38.653  23.674
2039.18  38.653  23.705
2039.68  38.589  23.674
2040.18  38.589  23.643
2040.68  38.653  23.674
2041.18  38.589  23.705
2041.68  38.653  23.674
2042.18  38.653  23.674
2042.68  38.589  23.674
2043.18  38.589  23.674
2043.68  38.589  23.705
2044.18  38.653  23.674
2044.68  38.653  23.705
2045.18  38.717  23.674
2045.68  38.589  23.643
2046.18  38.589  23.705
2046.68  38.653  23.705
2047.18  38.589  23.674
2047.68  38.589  23.674
2048.18  38.589  23.705
2048.68  38.653  23.643
2049.18  38.653  23.674
2049.68  38.653  23.735
2050.18  38.653  23.674
2050.68  38.653  23.705
2051.18  38.717  23.674
2051.68  38.653  23.674
2052.18  38.717  23.705
2052.68  38.717  23.674
2053.18  38.653  23.674
2053.68  38.653  23.705
2054.18  38.653  23.674
2054.68  38.653  23.705
2055.18  38.653  23.674
2055.68  38.653  23.674
2056.18  38.525  23.674
2056.68  38.653  23.705
2057.18  38.653  23.643
2057.68  38.589  23.705
2058.18  38.717  23.705
2058.68  38.653  23.705
2059.18  38.653  23.705
2059.68  38.717  23.705
2060.18  38.653  23.705
2060.68  38.653  23.674
2061.18  38.653  23.674
2061.68  38.653  23.705
2062.18  38.717  23.674
2062.68  38.653  23.735
2063.18  38.653  23.674
2063.68  38.653  23.705
2064.18  38.589  23.674
2064.68  38.653  23.705
2065.18  38.717  23.705
2065.68  38.717  23.674
2066.18  38.653  23.705
2066.68  38.653  23.705
2067.18  38.653  23.705
2067.68  38.653  23.674
2068.18  38.653  23.674
2068.68  38.653  23.705
2069.18  38.653  23.674
2069.68  38.653  23.705
2070.18  38.717  23.705
2070.68  38.653  23.705
2071.18  38.653  23.674
2071.68  38.653  23.674
2072.18  38.653  23.735
2072.68  38.589  23.705
2073.18  38.653  23.705
2073.68  38.653  23.674
2074.18  38.653  23.705
2074.68  38.589  23.674
2075.18  38.653  23.674
2075.68  38.653  23.705
2076.18  38.717  23.705
2076.68  38.717  23.674
2077.18  38.717  23.735
2077.68  38.653  23.705
2078.18  38.717  23.705
2078.68  38.717  23.705
2079.18  38.717  23.674
2079.68  38.653  23.705
2080.18  38.717  23.674
2080.68  38.717  23.705
2081.18  38.781  23.705
2081.68  38.653  23.705
2082.18  38.653  23.705
2082.68  38.653  23.674
2083.18  38.653  23.705
2083.68  38.717  23.674
2084.18  38.781  23.705
2084.68  38.653  23.674
2085.18  38.717  23.705
2085.68  38.781  23.674
2086.18  38.653  23.674
2086.68  38.717  23.705
2087.18  38.717  23.705
2087.68  38.589  23.705
2088.18  38.589  23.674
2088.68  38.653  23.705
2089.18  38.717  23.705
2089.68  38.717  23.705
2090.18  38.653  23.705
2090.68  38.717  23.674
2091.18  38.717  23.674
2091.68  38.717  23.674
2092.18  38.717  23.674
2092.68  38.653  23.705
2093.18  38.781  23.705
2093.68  38.781  23.674
2094.18  38.717  23.735
2094.68  38.717  23.705
2095.19  38.717  23.705
2095.69  38.717  23.705
2096.19  38.717  23.735
2096.69  38.717  23.674
2097.19  38.653  23.705
2097.69  38.717  23.705
2098.19  38.717  23.705
2098.69  38.781  23.674
2099.19  38.717  23.705
2099.69  38.717  23.674
2100.19  38.717  23.674
2100.69  38.717  23.674
2101.19  38.717  23.674
2101.69  38.781  23.643
2102.19  38.653  23.705
2102.69  38.717  23.674
2103.19  38.717  23.705
2103.69  38.653  23.705
2104.19  38.717  23.674
2104.69  38.717  23.674
2105.19  38.717  23.705
2105.69  38.781  23.674
2106.19  38.653  23.705
2106.69  38.717  23.705
2107.19  38.717  23.674
2107.69  38.781  23.674
2108.19  38.653  23.705
2108.69  38.717  23.674
2109.19  38.717  23.705
2109.69  38.717  23.643
2110.19  38.653  23.674
2110.69  38.781  23.705
2111.19  38.781  23.705
2111.69  38.717  23.705
2112.19  38.781  23.705
2112.69  38.717  23.705
2113.19  38.653  23.674
2113.69  38.845  23.705
2114.19  38.717  23.705
2114.69  38.717  23.674
2115.19  38.717  23.674
2115.69  38.781  23.705
2116.19  38.781  23.705
2116.69  38.717  23.674
2117.19  38.781  23.674
2117.69  38.845  23.735
2118.19  38.653  23.735
2118.69  38.717  23.705
2119.19  38.653  23.735
2119.69  38.717  23.674
2120.19  38.781  23.705
2120.69  38.717  23.705
2121.19  38.717  23.705
2121.69  38.781  23.705
2122.19  38.717  23.705
2122.69  38.717  23.674
2123.19  38.717  23.735
2123.69  38.717  23.735
2124.19  38.781  23.705
2124.69  38.717  23.705
2125.19  38.781  23.705
2125.69  38.845  23.705
2126.19  38.781  23.705
2126.69  38.781  23.705
2127.19  38.845  23.705
2127.69  38.781  23.735
2128.19  38.781  23.735
2128.69  38.781  23.705
2129.19  38.845  23.705
2129.69  38.717  23.735
2130.19  38.717  23.705
2130.69  38.717  23.705
2131.19  38.845  23.705
2131.69  38.781  23.766
2132.19  38.781  23.735
2132.69  38.781  23.705
2133.19  38.717  23.705
2133.69  38.781  23.735
2134.19  38.717  23.735
2134.69  38.845  23.705
2135.19  38.781  23.705
2135.69  38.845  23.705
2136.19  38.781  23.705
2136.69  38.781  23.735
2137.19  38.781  23.735
2137.69  38.781  23.705
2138.19  38.781  23.705
2138.69  38.781  23.735
2139.19  38.717  23.705
2139.69  38.781  23.705
2140.19  38.781  23.735
2140.69  38.781  23.705
2141.19  38.781  23.735
2141.69  38.845  23.705
2142.19  38.781  23.735
2142.69  38.845  23.735
2143.19  38.717  23.705
2143.69  38.845  23.705
2144.19  38.781  23.735
2144.69  38.717  23.735
2145.19  38.781  23.705
2145.69  38.781  23.735
2146.19  38.717  23.735
2146.69  38.845  23.705
2147.19  38.781  23.674
2147.69  38.781  23.674
2148.19  38.717  23.735
2148.69  38.717  23.705
2149.19  38.781  23.705
2149.69  38.717  23.735
2150.19  38.845  23.705
2150.69  38.781  23.705
2151.19  38.781  23.735
2151.69  38.717  23.705
2152.19  38.781  23.705
2152.69  38.781  23.705
2153.19  38.781  23.705
2153.69  38.717  23.735
2154.19  38.781  23.735
2154.69  38.653  23.735
2155.19  38.781  23.705
2155.69  38.909  23.705
2156.19  38.717  23.705
2156.69  38.845  23.705
2157.19  38.781  23.735
2157.69  38.781  23.735
2158.19  38.781  23.705
2158.69  38.781  23.735
2159.19  38.717  23.735
2159.69  38.845  23.705
2160.19  38.781  23.705
2160.69  38.781  23.705
2161.19  38.781  23.705
2161.69  38.845  23.705
2162.19  38.781  23.797
2162.69  38.781  23.735
2163.19  38.781  23.674
2163.69  38.717  23.735
2164.19  38.781  23.735
2164.69  38.717  23.735
2165.19  38.781  23.705
2165.69  38.845  23.674
2166.19  38.845  23.735
2166.69  38.781  23.674
2167.19  38.781  23.735
2167.69  38.781  23.735
2168.19  38.781  23.705
2168.69  38.781  23.705
2169.19  38.781  23.735
2169.69  38.717  23.705
2170.19  38.845  23.705
2170.69  38.845  23.705
2171.19  38.781  23.735
2171.69  38.717  23.674
2172.19  38.781  23.735
2172.69  38.781  23.705
2173.19  38.781  23.705
2173.69  38.717  23.735
2174.19  38.845  23.705
2174.69  38.845  23.735
2175.19  38.717  23.735
2175.69  38.781  23.735
2176.19  38.781  23.705
2176.69  38.781  23.674
2177.19  38.781  23.735
2177.69  38.845  23.735
2178.19  38.717  23.705
2178.69  38.717  23.735
2179.19  38.845  23.674
2179.69  38.781  23.735
2180.19  38.781  23.766
2180.69  38.845  23.705
2181.19  38.845  23.674
2181.69  38.781  23.705
2182.19  38.781  23.705
2182.69  38.845  23.735
2183.19  38.781  23.705
2183.69  38.781  23.735
2184.19  38.781  23.705
2184.69  38.781  23.735
2185.19  38.973  23.674
2185.69  38.717  23.705
2186.19  38.909  23.705
2186.69  38.781  23.674
2187.19  38.845  23.705
2187.69  38.845  23.705
2188.19  38.781  23.735
2188.69  38.845  23.705
2189.19  38.781  23.735
2189.69  38.781  23.735
2190.19  38.781  23.705
2190.69  38.781  23.766
2191.19  38.845  23.705
2191.69  38.717  23.705
2192.19  38.845  23.705
2192.69  38.845  23.735
2193.19  38.845  23.705
2193.69  38.845  23.705
2194.19  38.909  23.705
2194.69  38.845  23.735
2195.19  38.845  23.705
2195.69  38.845  23.735
2196.19  38.845  23.705
2196.69  38.909  23.705
2197.19  38.845  23.766
2197.70  38.845  23.705
2198.20  38.845  23.705
2198.70  38.845  23.735
2199.20  38.781  23.735
2199.70  38.781  23.735
2200.20  38.845  23.705
2200.70  38.781  23.705
2201.20  38.845  23.705
2201.70  38.845  23.766
2202.20  38.781  23.735
2202.70  38.845  23.674
2203.20  38.781  23.705
2203.70  38.845  23.735
2204.20  38.845  23.735
2204.70  38.845  23.735
2205.20  38.845  23.735
2205.70  38.845  23.735
2206.20  38.909  23.735
2206.70  38.845  23.735
2207.20  38.845  23.735
2207.70  38.781  23.735
2208.20  38.909  23.766
2208.70  38.845  23.735
2209.20  38.845  23.735
2209.70  38.781  23.705
2210.20  38.781  23.705
2210.70  38.845  23.735
2211.20  38.973  23.735
2211.70  38.845  23.735
2212.20  38.845  23.705
2212.70  38.845  23.735
2213.20  38.845  23.735
2213.70  38.845  23.735
2214.20  38.781  23.735
2214.70  38.845  23.766
2215.20  38.909  23.735
2215.70  38.845  23.705
2216.20  38.781  23.735
2216.70  38.845  23.735
2217.20  38.845  23.735
2217.70  38.845  23.705
2218.20  38.845  23.735
2218.70  38.909  23.735
2219.20  38.845  23.735
2219.70  38.845  23.735
2220.20  38.845  23.705
2220.70  38.909  23.766
2221.20  38.845  23.766
2221.70  38.845  23.735
2222.20  38.845  23.735
2222.70  38.909  23.735
2223.20  38.845  23.735
2223.70  38.845  23.735
2224.20  38.909  23.735
2224.70  38.909  23.735
2225.20  38.845  23.735
2225.70  38.845  23.735
2226.20  38.845  23.766
2226.70  38.845  23.735
2227.20  38.845  23.735
2227.70  38.845  23.735
2228.20  38.909  23.735
2228.70  38.845  23.735
2229.20  38.909  23.766
2229.70  38.845  23.766
2230.20  38.973  23.735
2230.70  38.845  23.735
2231.20  38.845  23.766
2231.70  38.845  23.766
2232.20  38.845  23.705
2232.70  38.845  23.735
2233.20  38.909  23.766
2233.70  38.909  23.766
2234.20  38.845  23.766
2234.70  38.909  23.735
2235.20  38.909  23.735
2235.70  38.909  23.705
2236.20  38.973  23.735
2236.70  38.909  23.705
2237.20  38.973  23.735
2237.70  38.845  23.766
2238.20  38.845  23.735
2238.70  38.845  23.766
2239.20  38.909  23.735
2239.70  38.845  23.797
2240.20  38.845  23.705
2240.70  38.909  23.735
2241.20  38.845  23.705
2241.70  38.845  23.735
2242.20  38.909  23.735
2242.70  38.781  23.766
2243.20  38.845  23.766
2243.70  38.845  23.735
2244.20  38.909  23.735
2244.70  38.909  23.735
2245.20  38.845  23.766
2245.70  38.909  23.705
2246.20  38.973  23.735
2246.70  38.845  23.766
2247.20  38.909  23.766
2247.70  38.909  23.735
2248.20  38.845  23.735
2248.70  38.973  23.735
2249.20  38.909  23.674
2249.70  38.909  23.766
2250.20  38.973  23.766
2250.70  38.973  23.766
2251.20  38.909  23.766
2251.70  38.845  23.797
2252.20  38.845  23.735
2252.70  38.909  23.766
2253.20  38.909  23.705
2253.70  38.909  23.766
2254.20  38.909  23.766
2254.70  38.909  23.735
2255.20  38.909  23.735
2255.70  38.973  23.735
2256.20  38.973  23.766
2256.70  38.909  23.766
2257.20  38.909  23.766
2257.70  38.909  23.735
2258.20  38.909  23.828
2258.70  38.973  23.766
2259.20  38.909  23.735
2259.70  38.909  23.735
2260.20  38.909  23.735
2260.70  38.845  23.735
2261.20  38.909  23.735
2261.70  38.973  23.735
2262.20  38.845  23.735
2262.70  38.909  23.766
2263.20  38.909  23.766
2263.70  38.845  23.735
2264.20  38.973  23.735
2264.70  38.909  23.735
2265.20  38.909  23.766
2265.70  38.909  23.735
2266.20  38.845  23.735
2266.70  38.909  23.735
2267.20  38.973  23.766
2267.70  38.845  23.735
2268.20  38.845  23.766
2268.70  38.909  23.705
2269.20  38.909  23.766
2269.70  38.909  23.766
2270.20  38.845  23.766
2270.70  38.973  23.766
2271.20  38.909  23.766
2271.70  38.909  23.766
2272.20  38.909  23.735
2272.70  38.909  23.766
2273.20  38.909  23.735
2273.70  38.909  23.735
2274.20  38.909  23.735
2274.70  38.909  23.735
2275.20  38.845  23.735
2275.70  38.909  23.766
2276.20  38.909  23.735
2276.70  38.973  23.766
2277.20  38.845  23.735
2277.70  38.909  23.766
2278.20  38.909  23.766
2278.70  38.909  23.766
2279.20  38.909  23.766
2279.70  38.845  23.735
2280.20  38.845  23.735
2280.70  38.909  23.766
2281.20  38.909  23.766
2281.70  38.781  23.735
2282.20  38.909  23.705
2282.70  38.909  23.766
2283.20  38.909  23.705
2283.70  38.973  23.735
2284.20  38.973  23.735
2284.70  38.973  23.705
2285.20  38.909  23.705
2285.70  38.909  23.735
2286.20  38.909  23.766
2286.70  38.973  23.766
2287.20  38.909  23.766
2287.70  38.909  23.766
2288.20  38.909  23.735
2288.70  38.973  23.766
2289.20  38.909  23.766
2289.70  38.909  23.766
2290.20  38.909  23.766
2290.70  38.909  23.735
2291.20  38.973  23.766
2291.70  38.909  23.766
2292.20  38.909  23.735
2292.70  38.909  23.735
2293.20  38.909  23.766
2293.70  38.909  23.735
2294.20  38.973  23.735
2294.70  38.909  23.766
2295.20  38.973  23.766
2295.70  38.973  23.797
2296.20  38.909  23.766
2296.70  38.973  23.797
2297.20  38.909  23.735
2297.70  38.973  23.766
2298.20  38.973  23.797
2298.70  38.909  23.766
2299.20  38.909  23.766
2299.70  38.845  23.766
2300.20  38.845  23.766
2300.70  38.909  23.705
2301.20  38.909  23.766
2301.70  38.909  23.797
2302.20  38.909  23.797
2302.70  38.973  23.766
2303.20  38.909  23.766
2303.70  38.909  23.766
2304.20  39.037  23.735
2304.70  38.973  23.705
2305.20  39.037  23.735
2305.70  38.845  23.766
2306.20  38.973  23.735
2306.70  38.973  23.766
2307.20  38.909  23.705
2307.70  38.909  23.766
2308.20  38.973  23.766
2308.70  38.909  23.735
2309.20  38.909  23.735
2309.70  38.909  23.828
2310.20  38.909  23.766
2310.70  38.973  23.766
2311.20  38.909  23.766
2311.70  38.973  23.766
2312.20  38.973  23.766
2312.70  38.845  23.766
2313.20  38.909  23.797
2313.70  38.973  23.735
2314.20  38.845  23.766
2314.70  38.909  23.766
2315.20  38.973  23.766
2315.70  38.909  23.766
2316.20  38.973  23.735
2316.70  39.037  23.766
2317.20  38.909  23.766
2317.70  38.909  23.797
2318.20  38.909  23.766
2318.70  38.973  23.797
2319.20  38.973  23.766
2319.70  38.973  23.705
2320.20  38.973  23.766
2320.70  38.973  23.766
2321.20  38.973  23.797
2321.71  38.973  23.766
2322.21  38.973  23.766
2322.71  38.973  23.766
2323.21  38.973  23.797
2323.71  39.037  23.797
2324.21  38.973  23.735
2324.71  38.909  23.797
2325.21  38.973  23.735
2325.71  38.973  23.735
2326.21  38.973  23.797
2326.71  38.973  23.766
2327.21  38.973  23.766
2327.71  38.909  23.797
2328.21  39.037  23.828
2328.71  39.037  23.735
2329.21  39.037  23.797
2329.71  38.973  23.797
2330.21  38.973  23.797
2330.71  38.973  23.735
2331.21  38.973  23.797
2331.71  38.973  23.797
2332.21  38.973  23.766
2332.71  38.909  23.766
2333.21  38.973  23.766
2333.71  38.973  23.766
2334.21  38.909  23.797
2334.71  39.037  23.766
2335.21  38.973  23.797
2335.71  39.037  23.797
2336.21  38.973  23.735
2336.71  38.973  23.797
2337.21  38.973  23.735
2337.71  38.973  23.766
2338.21  38.973  23.735
2338.71  38.909  23.766
2339.21  38.973  23.766
2339.71  38.973  23.766
2340.21  38.973  23.797
2340.71  38.973  23.766
2341.21  38.973  23.766
2341.71  38.973  23.735
2342.21  38.973  23.797
2342.71  39.101  23.766
2343.21  38.973  23.766
2343.71  39.037  23.766
2344.21  38.973  23.766
2344.71  38.973  23.735
2345.21  39.037  23.766
2345.71  38.973  23.797
2346.21  39.037  23.766
2346.71  38.909  23.766
2347.21  38.973  23.766
2347.71  38.909  23.766
2348.21  38.973  23.766
2348.71  38.973  23.766
2349.21  38.909  23.766
2349.71  39.037  23.766
2350.21  38.909  23.766
2350.71  38.973  23.797
2351.21  38.973  23.797
2351.71  38.973  23.766
2352.21  39.037  23.766
2352.71  39.037  23.766
2353.21  38.973  23.797
2353.71  38.973  23.766
2354.21  39.037  23.766
2354.71  39.037  23.735
2355.21  38.973  23.735
2355.71  38.909  23.766
2356.21  38.909  23.705
2356.71  38.973  23.766
2357.21  39.037  23.797
2357.71  38.973  23.797
2358.21  39.037  23.735
2358.71  39.037  23.766
2359.21  38.973  23.766
2359.71  38.973  23.735
2360.21  38.973  23.797
2360.71  39.037  23.797
2361.21  38.973  23.766
2361.71  38.845  23.797
2362.21  38.973  23.766
2362.71  39.037  23.766
2363.21  38.973  23.766
2363.71  38.973  23.797
2364.21  38.973  23.766
2364.71  39.037  23.828
2365.21  39.101  23.828
2365.71  38.973  23.797
2366.21  38.973  23.766
2366.71  39.037  23.766
2367.21  38.973  23.766
2367.71  38.973  23.735
2368.21  38.909  23.766
2368.71  39.037  23.766
2369.21  38.973  23.766
2369.71  38.973  23.766
2370.21  39.037  23.766
2370.71  39.037  23.797
2371.21  38.973  23.766
2371.71  38.909  23.766
2372.21  38.973  23.797
2372.71  39.037  23.766
2373.21  39.037  23.766
2373.71  39.037  23.766
2374.21  39.037  23.766
2374.71  39.037  23.797
2375.21  38.973  23.766
2375.71  39.037  23.766
2376.21  38.973  23.766
2376.71  39.165  23.766
2377.21  39.037  23.797
2377.71  38.973  23.859
2378.21  39.037  23.766
2378.71  39.037  23.797
2379.21  39.037  23.766
2379.71  38.973  23.766
2380.21  39.037  23.797
2380.71  38.973  23.766
2381.21  39.037  23.797
2381.71  39.037  23.766
2382.21  39.037  23.766
2382.71  39.037  23.797
2383.21  38.973  23.766
2383.71  38.973  23.766
2384.21  39.037  23.766
2384.71  38.973  23.797
2385.21  38.973  23.797
2385.71  38.973  23.766
2386.21  39.037  23.766
2386.71  39.037  23.828
2387.21  39.101  23.797
2387.71  39.037  23.828
2388.21  39.101  23.797
2388.71  39.037  23.797
2389.21  38.973  23.828
2389.71  39.037  23.766
2390.21  39.037  23.735
2390.71  38.973  23.797
2391.21  39.037  23.766
2391.71  39.037  23.766
2392.21  39.037  23.766
2392.71  39.037  23.797
2393.21  39.037  23.797
2393.71  39.037  23.797
2394.21  39.037  23.797
2394.71  39.101  23.797
2395.21  39.037  23.766
2395.71  39.037  23.828
2396.21  39.037  23.828
2396.71  39.037  23.766
2397.21  39.037  23.828
2397.71  39.037  23.797
2398.21  39.037  23.797
2398.71  38.973  23.797
2399.21  38.909  23.766
2399.71  39.101  23.766
2400.21  39.101  23.797
2400.71  39.037  23.797
2401.21  38.973  23.766
2401.71  39.037  23.766
2402.21  38.973  23.766
2402.71  38.973  23.766
2403.21  39.037  23.797
2403.71  38.973  23.797
2404.21  39.037  23.797
2404.71  39.101  23.828
2405.21  39.037  23.828
2405.71  39.037  23.766
2406.21  39.101  23.766
2406.71  39.037  23.797
2407.21  39.037  23.766
2407.71  39.037  23.797
2408.21  39.037  23.797
2408.71  39.101  23.797
2409.21  38.909  23.828
2409.71  39.037  23.766
2410.21  39.037  23.766
2410.71  38.973  23.797
2411.21  38.973  23.828
2411.71  39.037  23.797
2412.21  39.101  23.797
2412.71  39.037  23.797
2413.21  39.037  23.797
2413.71  39.037  23.766
2414.21  39.101  23.766
2414.71  39.037  23.797
2415.21  39.101  23.797
2415.71  39.101  23.766
2416.21  39.037  23.766
2416.71  38.973  23.797
2417.21  39.037  23.797
2417.71  39.101  23.766
2418.21  39.037  23.766
2418.71  39.037  23.797
2419.21  39.037  23.797
2419.71  39.037  23.797
2420.21  39.037  23.766
2420.71  39.037  23.797
2421.21  39.037  23.766
2421.71  39.101  23.797
2422.21  39.037  23.766
2422.71  39.037  23.797
2423.21  38.973  23.766
2423.72  39.037  23.797
2424.22  39.037  23.797
2424.72  39.037  23.797
2425.22  39.101  23.797
2425.72  39.101  23.797
2426.22  38.973  23.828
2426.72  39.101  23.828
2427.22  39.037  23.766
2427.72  39.037  23.797
2428.22  39.037  23.828
2428.72  39.101  23.766
2429.22  39.101  23.797
2429.72  39.101  23.797
2430.22  39.037  23.797
2430.72  39.101  23.797
2431.22  39.101  23.766
2431.72  39.101  23.797
2432.22  39.101  23.797
2432.72  39.037  23.766
2433.22  39.037  23.797
2433.72  39.037  23.797
2434.22  39.037  23.828
2434.72  39.037  23.797
2435.22  39.037  23.828
2435.72  39.101  23.797
2436.22  39.101  23.797
2436.72  39.101  23.797
2437.22  39.101  23.797
2437.72  39.101  23.828
2438.22  39.101  23.766
2438.72  39.101  23.797
2439.22  39.037  23.766
2439.72  39.037  23.797
2440.22  39.037  23.797
2440.72  39.101  23.797
2441.22  39.101  23.797
2441.72  39.037  23.797
2442.22  39.037  23.828
2442.72  39.101  23.766
2443.22  39.037  23.828
2443.72  39.037  23.797
2444.22  39.101  23.797
2444.72  39.101  23.797
2445.22  39.101  23.859
2445.72  39.101  23.828
2446.22  39.101  23.797
2446.72  39.037  23.797
2447.22  39.037  23.797
2447.72  39.101  23.797
2448.22  38.973  23.797
2448.72  39.101  23.797
2449.22  39.037  23.828
2449.72  39.037  23.828
2450.22  39.101  23.828
2450.72  39.101  23.797
2451.22  39.101  23.797
2451.72  39.101  23.797
2452.22  39.101  23.797
2452.72  39.101  23.797
2453.22  39.037  23.797
2453.72  39.101  23.797
2454.22  39.101  23.828
2454.72  39.037  23.766
2455.22  39.037  23.797
2455.72  39.101  23.766
2456.22  39.037  23.828
2456.72  39.165  23.797
2457.22  39.037  23.828
2457.72  39.037  23.797
2458.22  39.037  23.797
2458.72  39.037  23.797
2459.22  39.101  23.828
2459.72  39.101  23.797
2460.22  39.101  23.828
2460.72  39.101  23.828
2461.22  39.101  23.797
2461.72  39.101  23.828
2462.22  39.037  23.797
2462.72  39.037  23.828
2463.22  39.101  23.797
2463.72  39.101  23.797
2464.22  39.101  23.766
2464.72  39.101  23.797
2465.22  39.101  23.797
2465.72  39.101  23.797
2466.22  39.037  23.797
2466.72  39.037  23.828
2467.22  38.973  23.797
2467.72  39.037  23.797
2468.22  39.101  23.797
2468.72  39.101  23.797
2469.22  39.101  23.828
2469.72  39.229  23.797
2470.22  39.101  23.828
2470.72  39.101  23.766
2471.22  39.165  23.828
2471.72  39.101  23.797
2472.22  39.037  23.797
2472.72  39.165  23.828
2473.22  39.229  23.797
2473.72  39.101  23.828
2474.22  39.101  23.828
2474.72  39.165  23.797
2475.22  39.101  23.828
2475.72  39.101  23.828
2476.22  39.101  23.828
2476.72  39.101  23.797
2477.22  39.037  23.797
2477.72  39.101  23.797
2478.22  39.101  23.797
2478.72  39.101  23.828
2479.22  39.293  23.828
2479.72  39.165  23.828
2480.22  39.101  23.828
2480.72  39.037  23.828
2481.22  39.101  23.766
2481.72  39.101  23.797
2482.22  39.101  23.828
2482.72  39.165  23.797
2483.22  39.037  23.797
2483.72  39.101  23.828
2484.22  39.101  23.828
2484.72  39.165  23.828
2485.22  39.165  23.797
2485.72  39.101  23.797
2486.22  39.101  23.828
2486.72  39.101  23.828
2487.22  39.165  23.828
2487.72  39.101  23.797
2488.22  39.101  23.828
2488.72  39.037  23.828
2489.22  38.973  23.828
2489.72  39.165  23.828
2490.22  39.101  23.828
2490.72  38.973  23.828
2491.22  39.101  23.797
2491.72  39.165  23.797
2492.22  39.165  23.828
2492.72  39.101  23.828
2493.22  39.229  23.828
2493.72  39.165  23.766
2494.22  39.101  23.797
2494.72  39.165  23.828
2495.22  39.165  23.828
2495.72  39.101  23.797
2496.22  39.101  23.797
2496.72  39.165  23.828
2497.22  39.101  23.828
2497.72  39.101  23.797
2498.22  39.165  23.797
2498.72  39.101  23.797
2499.22  39.165  23.797
2499.72  39.165  23.828
2500.22  39.101  23.828
2500.72  39.101  23.828
2501.22  39.165  23.828
2501.72  39.101  23.797
