   1.42  23.278  23.242
   1.92  23.304  23.212
   2.42  23.330  23.242
   2.92  23.330  23.273
   3.42  23.304  23.242
   3.92  23.330  23.212
   4.42  23.304  23.242
   4.92  23.304  23.212
   5.42  23.304  23.242
   5.92  23.330  23.242
   6.42  23.330  23.273
   6.92  23.304  23.242
   7.42  23.278  23.242
   7.92  23.330  23.212
   8.42  23.356  23.242
   8.92  23.304  23.242
   9.42  23.330  23.212
   9.92  23.330  23.242
  10.42  23.330  23.212
  10.92  23.382  23.242
  11.42  23.304  23.273
  11.92  23.278  23.242
  12.42  23.330  23.242
  12.92  23.330  23.242
  13.42  23.330  23.242
  13.92  23.330  23.242
  14.42  23.304  23.242
  14.92  23.304  23.242
  15.42  23.330  23.242
  15.92  23.330  23.273
  16.42  23.304  23.242
  16.92  23.330  23.242
  17.42  23.330  23.212
  17.92  23.330  23.242
  18.42  23.278  23.242
  18.92  23.330  23.181
  19.42  23.330  23.242
  19.92  23.330  23.242
  20.42  23.304  23.212
  20.92  23.304  23.242
  21.42  23.330  23.242
  21.92  23.330  23.242
  22.42  23.330  23.212
  22.92  23.330  23.242
  23.42  23.330  23.273
  23.92  23.330  23.273
  24.42  23.356  23.212
  24.92  23.382  23.242
  25.42  23.408  23.242
  25.92  23.461  23.242
  26.42  23.487  23.212
  26.92  23.513  23.242
  27.42  23.539  23.242
  27.92  23.591  23.242
  28.42  23.617  23.242
  28.92  23.643  23.242
  29.42  23.643  23.273
  29.92  23.696  23.212
  30.42  23.696  23.304
  30.92  23.748  23.273
  31.42  23.774  23.242
  31.92  23.800  23.212
  32.42  23.826  23.242
  32.92  23.852  23.273
  33.42  23.878  23.242
  33.92  23.905  23.273
  34.42  23.931  23.273
  34.92  23.983  23.273
  35.42  23.957  23.273
  35.92  24.035  23.242
  36.42  24.035  23.242
  36.92  24.061  23.273
  37.42  24.087  23.273
  37.92  24.113  23.242
  38.42  24.113  23.242
  38.92  24.140  23.242
  39.42  24.166  23.242
  39.92  24.166  23.242
  40.42  24.192  23.212
  40.92  24.218  23.212
  41.42  24.192  23.242
  41.92  24.244  23.242
  42.42  24.270  23.242
  42.92  24.296  23.242
  43.42  24.322  23.242
  43.92  24.322  23.212
  44.42  24.322  23.242
  44.92  24.375  23.242
  45.42  24.348  23.242
  45.92  24.375  23.242
  46.42  24.427  23.242
  46.92  24.427  23.242
  47.42  24.453  23.212
  47.92  24.453  23.242
  48.42  24.453  23.242
  48.92  24.505  23.242
  49.42  24.505  23.242
  49.92  24.505  23.242
  50.42  24.531  23.273
  50.92  24.531  23.242
  51.42  24.610  23.242
  51.92  24.557  23.212
  52.42  24.583  23.242
  52.92  24.583  23.242
  53.42  24.610  23.212
  53.92  24.583  23.212
  54.42  24.636  23.242
  54.92  24.662  23.242
  55.42  24.662  23.273
  55.92  24.688  23.242
  56.42  24.688  23.242
  56.92  24.714  23.242
  57.42  24.714  23.212
  57.92  24.740  23.242
  58.42  24.766  23.242
  58.92  24.766  23.242
  59.42  24.766  23.273
  59.92  24.792  23.242
  60.42  24.766  23.242
  60.92  24.819  23.212
  61.42  24.766  23.212
  61.92  24.845  23.242
  62.42  24.819  23.242
  62.92  24.845  23.242
  63.42  24.871  23.242
  63.92  24.871  23.242
  64.42  24.871  23.242
  64.92  24.897  23.242
  65.42  24.923  23.242
  65.92  24.923  23.242
  66.42  24.923  23.242
  66.92  24.923  23.273
  67.42  24.949  23.181
  67.92  24.949  23.242
  68.42  24.949  23.273
  68.92  24.949  23.242
  69.42  24.975  23.242
  69.92  25.005  23.242
  70.42  25.005  23.273
  70.92  25.114  23.242
  71.42  25.114  23.273
  71.92  25.005  23.273
  72.42  25.222  23.242
  72.92  25.222  23.242
  73.42  25.330  23.242
  73.92  25.330  23.212
  74.42  25.438  23.212
  74.92  25.438  23.242
  75.42  25.438  23.273
  75.92  25.438  23.242
  76.42  25.547  23.242
  76.92  25.547  23.242
  77.42  25.655  23.212
  77.92  25.763  23.273
  78.42  25.655  23.273
  78.92  25.655  23.273
  79.42  25.763  23.273
  79.92  25.871  23.273
  80.42  25.871  23.212
  80.92  25.871  23.273
  81.42  25.871  23.242
  81.92  25.980  23.273
  82.42  26.088  23.212
  82.92  25.980  23.273
  83.42  26.088  23.242
  83.92  26.196  23.273
  84.42  26.196  23.242
  84.92  26.196  23.242
  85.42  26.196  23.273
  85.92  26.196  23.242
  86.42  26.413  23.242
  86.92  26.196  23.212
  87.42  26.304  23.242
  87.92  26.304  23.242
  88.42  26.521  23.242
  88.92  26.413  23.242
  89.42  26.413  23.273
  89.92  26.521  23.242
  90.42  26.629  23.242
  90.92  26.737  23.242
  91.42  26.629  23.242
  91.92  26.737  23.273
  92.42  26.629  23.304
  92.92  26.629  23.242
  93.42  26.737  23.242
  93.92  26.737  23.242
  94.42  26.737  23.242
  94.92  26.846  23.242
  95.42  26.846  23.273
  95.92  26.846  23.212
  96.42  26.954  23.242
  96.92  27.062  23.242
  97.42  26.846  23.273
  97.92  27.062  23.242
  98.42  27.062  23.242
  98.92  27.062  23.242
  99.42  26.954  23.273
  99.92  27.062  23.212
 100.42  27.170  23.242
 100.92  27.279  23.242
 101.42  27.279  23.242
 101.92  27.170  23.273
 102.42  27.170  23.212
 102.92  27.279  23.242
 103.43  27.387  23.273
 103.93  27.495  23.273
 104.43  27.387  23.242
 104.93  27.387  23.242
 105.43  27.495  23.242
 105.93  27.387  23.212
 106.43  27.387  23.242
 106.93  27.495  23.212
 107.43  27.603  23.242
 107.93  27.603  23.242
 108.43  27.820  23.242
 108.93  27.603  23.242
 109.43  27.712  23.242
 109.93  27.712  23.273
 110.43  27.820  23.212
 110.93  27.712  23.242
 111.43  27.820  23.242
 111.93  27.820  23.212
 112.43  27.928  23.242
 112.93  27.820  23.242
 113.43  28.036  23.212
 113.93  27.928  23.242
 114.43  27.928  23.242
 114.93  27.928  23.242
 115.43  27.928  23.242
 115.93  28.036  23.273
 116.43  28.036  23.212
 116.93  28.036  23.242
 117.43  28.145  23.242
 117.93  28.145  23.242
 118.43  28.145  23.242
 118.93  28.361  23.242
 119.43  28.253  23.273
 119.93  28.253  23.242
 120.43  28.361  23.212
 120.93  28.253  23.212
 121.43  28.253  23.242
 121.93  28.253  23.181
 122.43  28.361  23.212
 122.93  28.469  23.304
 123.43  28.469  23.273
 123.93  28.361  23.242
 124.43  28.469  23.212
 124.93  28.469  23.273
 125.43  28.361  23.242
 125.93  28.578  23.242
 126.43  28.578  23.242
 126.93  28.469  23.212
 127.43  28.578  23.273
 127.93  28.578  23.242
 128.43  28.686  23.242
 128.93  28.686  23.212
 129.43  28.686  23.273
 129.93  28.686  23.242
 130.43  28.794  23.242
 130.93  28.794  23.242
 131.43  28.794  23.242
 131.93  28.686  23.242
 132.43  28.794  23.242
 132.93  28.902  23.212
 133.43  29.011  23.242
 133.93  28.902  23.242
 134.43  29.011  23.212
 134.93  29.119  23.212
 135.43  28.902  23.273
 135.93  29.011  23.242
 136.43  29.011  23.242
 136.93  29.011  23.242
 137.43  29.011  23.212
 137.93  29.119  23.212
 138.43  29.119  23.242
 138.93  29.119  23.242
 139.43  29.335  23.242
 139.93  29.335  23.242
 140.43  29.227  23.242
 140.93  29.227  23.273
 141.43  29.227  23.242
 141.93  29.227  23.212
 142.43  29.227  23.242
 142.93  29.335  23.242
 143.43  29.335  23.212
 143.93  29.335  23.242
 144.43  29.335  23.242
 144.93  29.335  23.242
 145.43  29.444  23.242
 145.93  29.444  23.242
 146.43  29.444  23.273
 146.93  29.444  23.242
 147.43  29.444  23.242
 147.93  29.552  23.242
 148.43  29.552  23.273
 148.93  29.552  23.242
 149.43  29.552  23.242
 149.93  29.552  23.242
 150.43  29.552  23.242
 150.93  29.660  23.242
 151.43  29.660  23.242
 151.93  29.768  23.212
 152.43  29.660  23.273
 152.93  29.768  23.242
 153.43  29.768  23.273
 153.93  29.768  23.242
 154.43  29.877  23.242
 154.93  29.768  23.242
 155.43  29.877  23.273
 155.93  29.877  23.273
 156.43  29.877  23.212
 156.93  29.877  23.273
 157.43  29.877  23.242
 157.93  29.985  23.242
 158.43  29.877  23.242
 158.93  29.985  23.242
 159.43  29.877  23.242
 159.93  29.985  23.242
 160.43  30.101  23.242
 160.93  30.101  23.212
 161.43  29.985  23.242
 161.93  30.217  23.242
 162.43  30.101  23.242
 162.93  30.217  23.242
 163.43  30.101  23.242
 163.93  30.101  23.273
 164.43  30.217  23.242
 164.93  30.334  23.273
 165.43  30.217  23.242
 165.93  30.217  23.242
 166.43  30.334  23.273
 166.93  30.334  23.242
 167.43  30.334  23.242
 167.93  30.334  23.242
 168.43  30.334  23.273
 168.93  30.451  23.273
 169.43  30.334  23.212
 169.93  30.451  23.242
 170.43  30.451  23.273
 170.93  30.451  23.242
 171.43  30.568  23.242
 171.93  30.451  23.273
 172.43  30.568  23.242
 172.93  30.568  23.242
 173.43  30.685  23.242
 173.93  30.685  23.242
 174.43  30.685  23.242
 174.93  30.685  23.273
 175.43  30.802  23.273
 175.93  30.802  23.273
 176.43  30.685  23.242
 176.93  30.802  23.304
 177.43  30.802  23.273
 177.93  30.919  23.242
 178.43  30.802  23.242
 178.93  30.919  23.242
 179.43  30.919  23.242
 179.93  30.919  23.242
 180.43  30.802  23.242
 180.93  30.919  23.273
 181.43  31.036  23.304
 181.93  30.919  23.242
 182.43  31.036  23.273
 182.93  31.036  23.242
 183.43  31.036  23.242
 183.93  31.152  23.242
 184.43  31.152  23.242
 184.93  31.036  23.242
 185.43  31.152  23.242
 185.93  31.152  23.242
 186.43  31.152  23.273
 186.93  31.269  23.242
 187.43  31.152  23.273
 187.93  31.152  23.273
 188.43  31.152  23.273
 188.93  31.152  23.242
 189.43  31.269  23.273
 189.93  31.269  23.273
 190.43  31.269  23.273
 190.93  31.269  23.273
 191.43  31.269  23.273
 191.93  31.386  23.273
 192.43  31.386  23.242
 192.93  31.386  23.242
 193.43  31.386  23.242
 193.93  31.503  23.273
 194.43  31.386  23.242
 194.93  31.503  23.273
 195.43  31.620  23.273
 195.93  31.620  23.242
 196.43  31.620  23.242
 196.93  31.620  23.242
 197.43  31.620  23.273
 197.93  31.503  23.242
 198.43  31.737  23.242
 198.93  31.620  23.273
 199.43  31.620  23.273
 199.93  31.620  23.273
 200.43  31.737  23.273
 200.93  31.737  23.242
 201.43  31.620  23.242
 201.93  31.620  23.242
 202.43  31.737  23.273
 202.93  31.620  23.273
 203.43  31.620  23.242
 203.93  31.737  23.273
 204.43  31.971  23.242
 204.93  31.971  23.242
 205.43  31.854  23.242
 205.94  31.854  23.242
 206.44  31.971  23.273
 206.94  32.087  23.273
 207.44  31.971  23.242
 207.94  31.854  23.304
 208.44  31.971  23.242
 208.94  31.971  23.273
 209.44  31.971  23.273
 209.94  31.971  23.273
 210.44  32.087  23.242
 210.94  32.087  23.242
 211.44  31.971  23.273
 211.94  32.087  23.242
 212.44  31.971  23.212
 212.94  32.204  23.242
 213.44  32.087  23.212
 213.94  31.971  23.242
 214.44  32.204  23.273
 214.94  32.087  23.242
 215.44  32.204  23.304
 215.94  32.087  23.273
 216.44  32.204  23.273
 216.94  32.204  23.273
 217.44  32.204  23.273
 217.94  32.204  23.242
 218.44  32.204  23.242
 218.94  32.555  23.242
 219.44  32.321  23.273
 219.94  32.321  23.273
 220.44  32.204  23.242
 220.94  32.321  23.242
 221.44  32.438  23.304
 221.94  32.438  23.273
 222.44  32.321  23.273
 222.94  32.321  23.273
 223.44  32.321  23.304
 223.94  32.438  23.242
 224.44  32.555  23.181
 224.94  32.438  23.304
 225.44  32.555  23.242
 225.94  32.555  23.212
 226.44  32.555  23.273
 226.94  32.555  23.242
 227.44  32.555  23.273
 227.94  32.555  23.273
 228.44  32.438  23.242
 228.94  32.555  23.242
 229.44  32.672  23.242
 229.94  32.555  23.242
 230.44  32.555  23.273
 230.94  32.789  23.273
 231.44  32.672  23.304
 231.94  32.555  23.242
 232.44  32.672  23.242
 232.94  32.789  23.242
 233.44  32.672  23.242
 233.94  32.906  23.212
 234.44  32.906  23.242
 234.94  32.906  23.212
 235.44  32.789  23.242
 235.94  32.789  23.273
 236.44  33.022  23.273
 236.94  32.789  23.273
 237.44  32.789  23.273
 237.94  32.906  23.273
 238.44  33.022  23.212
 238.94  32.906  23.242
 239.44  32.906  23.273
 239.94  33.022  23.273
 240.44  32.906  23.273
 240.94  33.022  23.242
 241.44  32.906  23.242
 241.94  33.022  23.242
 242.44  33.022  23.242
 242.94  33.022  23.242
 243.44  33.022  23.212
 243.94  33.139  23.273
 244.44  33.022  23.242
 244.94  33.139  23.212
 245.44  33.139  23.273
 245.94  33.022  23.242
 246.44  33.256  23.242
 246.94  33.022  23.242
 247.44  33.139  23.273
 247.94  33.256  23.242
 248.44  33.256  23.242
 248.94  33.139  23.273
 249.44  33.256  23.242
 249.94  33.256  23.273
 250.44  33.139  23.181
 250.94  33.256  23.242
 251.44  33.139  23.273
 251.94  33.256  23.273
 252.44  33.373  23.273
 252.94  33.373  23.242
 253.44  33.256  23.242
 253.94  33.256  23.273
 254.44  33.373  23.242
 254.94  33.490  23.242
 255.44  33.256  23.273
 255.94  33.373  23.273
 256.44  33.256  23.304
 256.94  33.490  23.242
 257.44  33.490  23.242
 257.94  33.373  23.273
 258.44  33.490  23.273
 258.94  33.607  23.242
 259.44  33.490  23.273
 259.94  33.724  23.273
 260.44  33.607  23.273
 260.94  33.724  23.242
 261.44  33.490  23.273
 261.94  33.607  23.242
 262.44  33.607  23.273
 262.94  33.724  23.273
 263.44  33.607  23.212
 263.94  33.724  23.242
 264.44  33.724  23.273
 264.94  33.724  23.273
 265.44  33.724  23.273
 265.94  33.841  23.273
 266.44  33.841  23.273
 266.94  33.724  23.273
 267.44  33.724  23.273
 267.94  33.841  23.273
 268.44  33.957  23.273
 268.94  33.841  23.273
 269.44  33.841  23.273
 269.94  33.841  23.242
 270.44  33.841  23.304
 270.94  33.841  23.273
 271.44  33.957  23.273
 271.94  33.957  23.242
 272.44  34.074  23.242
 272.94  33.957  23.304
 273.44  34.074  23.242
 273.94  33.957  23.212
 274.44  34.074  23.242
 274.94  33.957  23.273
 275.44  33.957  23.273
 275.94  33.957  23.273
 276.44  34.074  23.242
 276.94  34.074  23.273
 277.44  34.074  23.273
 277.94  34.191  23.242
 278.44  33.957  23.212
 278.94  34.074  23.273
 279.44  34.074  23.273
 279.94  34.074  23.242
 280.44  34.191  23.242
 280.94  34.074  23.212
 281.44  33.957  23.273
 281.94  34.308  23.212
 282.44  34.191  23.273
 282.94  34.191  23.304
 283.44  34.191  23.273
 283.94  34.308  23.304
 284.44  34.191  23.242
 284.94  34.425  23.273
 285.44  34.308  23.242
 285.94  34.308  23.273
 286.44  34.425  23.273
 286.94  34.425  23.273
 287.44  34.191  23.242
 287.94  34.308  23.273
 288.44  34.308  23.273
 288.94  34.308  23.273
 289.44  34.308  23.273
 289.94  34.308  23.273
 290.44  34.308  23.273
 290.94  34.308  23.242
 291.44  34.425  23.273
 291.94  34.425  23.273
 292.44  34.425  23.273
 292.94  34.425  23.304
 293.44  34.542  23.242
 293.94  34.542  23.273
 294.44  34.308  23.181
 294.94  34.425  23.242
 295.44  34.425  23.242
 295.94  34.308  23.242
 296.44  34.425  23.273
 296.94  34.542  23.273
 297.44  34.542  23.304
 297.94  34.542  23.273
 298.44  34.659  23.273
 298.94  34.659  23.273
 299.44  34.659  23.273
 299.94  34.776  23.273
 300.44  34.659  23.273
 300.94  34.659  23.273
 301.44  34.659  23.273
 301.94  34.776  23.242
 302.44  34.659  23.242
 302.94  34.659  23.335
 303.44  34.659  23.242
 303.94  34.659  23.273
 304.44  34.659  23.242
 304.94  34.892  23.273
 305.44  34.776  23.242
 305.94  34.892  23.242
 306.44  34.776  23.242
 306.94  34.776  23.273
 307.44  34.659  23.242
 307.94  34.542  23.242
 308.44  34.776  23.273
 308.94  34.776  23.273
 309.44  34.776  23.273
 309.94  34.892  23.273
 310.44  34.892  23.273
 310.94  35.005  23.273
 311.44  34.892  23.273
 311.94  34.892  23.273
 312.44  35.005  23.273
 312.94  34.776  23.273
 313.44  34.776  23.273
 313.94  35.069  23.242
 314.44  34.892  23.273
 314.94  34.892  23.242
 315.44  34.892  23.242
 315.94  34.776  23.273
 316.44  34.892  23.304
 316.94  35.069  23.335
 317.44  35.005  23.304
 317.94  35.005  23.273
 318.44  35.005  23.242
 318.94  35.069  23.304
 319.44  35.005  23.242
 319.94  35.005  23.242
 320.44  35.069  23.242
 320.94  35.069  23.242
 321.44  35.069  23.304
 321.94  35.133  23.242
 322.44  35.069  23.242
 322.94  35.069  23.273
 323.44  35.133  23.273
 323.94  35.133  23.273
 324.44  35.069  23.273
 324.94  35.069  23.273
 325.44  35.197  23.273
 325.94  35.133  23.304
 326.44  35.005  23.304
 326.94  35.133  23.212
 327.44  35.133  23.242
 327.94  35.197  23.273
 328.44  35.069  23.273
 328.94  35.133  23.273
 329.44  35.133  23.242
 329.95  35.197  23.273
 330.45  35.197  23.304
 330.95  35.133  23.304
 331.45  35.197  23.335
 331.95  35.325  23.273
 332.45  35.197  23.304
 332.95  35.261  23.242
 333.45  35.261  23.304
 333.95  35.261  23.304
 334.45  35.261  23.273
 334.95  35.197  23.304
 335.45  35.261  23.273
 335.95  35.261  23.273
 336.45  35.261  23.273
 336.95  35.261  23.273
 337.45  35.261  23.212
 337.95  35.261  23.304
 338.45  35.261  23.273
 338.95  35.325  23.304
 339.45  35.325  23.242
 339.95  35.325  23.273
 340.45  35.389  23.273
 340.95  35.261  23.304
 341.45  35.453  23.273
 341.95  35.325  23.273
 342.45  35.325  23.335
 342.95  35.261  23.242
 343.45  35.325  23.304
 343.95  35.325  23.273
 344.45  35.389  23.273
 344.95  35.325  23.242
 345.45  35.261  23.242
 345.95  35.389  23.242
 346.45  35.389  23.304
 346.95  35.325  23.273
 347.45  35.389  23.304
 347.95  35.389  23.273
 348.45  35.389  23.273
 348.95  35.389  23.273
 349.45  35.389  23.242
 349.95  35.325  23.273
 350.45  35.389  23.273
 350.95  35.389  23.242
 351.45  35.453  23.273
 351.95  35.389  23.273
 352.45  35.389  23.304
 352.95  35.453  23.273
 353.45  35.389  23.273
 353.95  35.453  23.273
 354.45  35.453  23.273
 354.95  35.517  23.273
 355.45  35.453  23.273
 355.95  35.517  23.242
 356.45  35.517  23.242
 356.95  35.581  23.273
 357.45  35.453  23.273
 357.95  35.389  23.273
 358.45  35.389  23.212
 358.95  35.581  23.242
 359.45  35.453  23.304
 359.95  35.517  23.304
 360.45  35.517  23.273
 360.95  35.581  23.273
 361.45  35.581  23.242
 361.95  35.517  23.304
 362.45  35.517  23.273
 362.95  35.581  23.335
 363.45  35.517  23.304
 363.95  35.645  23.304
 364.45  35.581  23.242
 364.95  35.709  23.273
 365.45  35.581  23.273
 365.95  35.645  23.304
 366.45  35.517  23.335
 366.95  35.645  23.273
 367.45  35.581  23.273
 367.95  35.645  23.304
 368.45  35.645  23.273
 368.95  35.645  23.212
 369.45  35.581  23.212
 369.95  35.645  23.273
 370.45  35.645  23.273
 370.95  35.709  23.273
 371.45  35.517  23.242
 371.95  35.645  23.304
 372.45  35.773  23.273
 372.95  35.645  23.242
 373.45  35.709  23.304
 373.95  35.645  23.304
 374.45  35.773  23.242
 374.95  35.709  23.273
 375.45  35.645  23.273
 375.95  35.773  23.273
 376.45  35.709  23.273
 376.95  35.709  23.273
 377.45  35.709  23.242
 377.95  35.645  23.273
 378.45  35.709  23.273
 378.95  35.773  23.304
 379.45  35.709  23.242
 379.95  35.709  23.242
 380.45  35.773  23.242
 380.95  35.709  23.273
 381.45  35.837  23.273
 381.95  35.709  23.273
 382.45  35.709  23.304
 382.95  35.709  23.273
 383.45  35.773  23.304
 383.95  35.773  23.273
 384.45  35.773  23.273
 384.95  35.773  23.335
 385.45  35.773  23.273
 385.95  35.773  23.273
 386.45  35.837  23.242
 386.95  35.773  23.304
 387.45  35.709  23.273
 387.95  35.837  23.273
 388.45  35.709  23.304
 388.95  35.965  23.242
 389.45  35.773  23.273
 389.95  35.837  23.242
 390.45  35.837  23.242
 390.95  35.773  23.335
 391.45  35.901  23.273
 391.95  35.901  23.242
 392.45  35.837  23.273
 392.95  35.837  23.304
 393.45  35.965  23.273
 393.95  35.901  23.304
 394.45  35.901  23.273
 394.95  35.837  23.304
 395.45  35.901  23.273
 395.95  35.901  23.273
 396.45  35.965  23.242
 396.95  35.965  23.304
 397.45  35.901  23.304
 397.95  35.965  23.242
 398.45  35.773  23.273
 398.95  35.901  23.273
 399.45  35.901  23.273
 399.95  35.901  23.304
 400.45  35.901  23.304
 400.95  35.901  23.304
 401.45  35.901  23.273
 401.95  35.901  23.242
 402.45  35.965  23.242
 402.95  35.901  23.242
 403.45  35.965  23.242
 403.95  35.965  23.242
 404.45  35.901  23.242
 404.95  35.965  23.304
 405.45  35.965  23.273
 405.95  36.029  23.273
 406.45  35.965  23.304
 406.95  35.901  23.304
 407.45  36.029  23.273
 407.95  35.965  23.335
 408.45  36.029  23.304
 408.95  36.029  23.242
 409.45  36.093  23.242
 409.95  36.029  23.304
 410.45  36.093  23.273
 410.95  36.029  23.304
 411.45  36.093  23.273
 411.95  36.093  23.304
 412.45  36.093  23.335
 412.95  36.093  23.273
 413.45  36.093  23.273
 413.95  35.965  23.273
 414.45  36.093  23.304
 414.95  35.965  23.273
 415.45  36.093  23.273
 415.95  36.093  23.273
 416.45  36.221  23.273
 416.95  36.093  23.273
 417.45  36.093  23.273
 417.95  36.093  23.304
 418.45  36.157  23.304
 418.95  36.157  23.273
 419.45  36.157  23.304
 419.95  36.157  23.304
 420.45  36.157  23.304
 420.95  36.157  23.273
 421.45  36.157  23.273
 421.95  36.221  23.335
 422.45  36.157  23.242
 422.95  36.157  23.335
 423.45  36.157  23.273
 423.95  36.221  23.304
 424.45  36.157  23.304
 424.95  36.157  23.273
 425.45  36.157  23.304
 425.95  36.221  23.304
 426.45  36.285  23.242
 426.95  36.157  23.273
 427.45  36.221  23.273
 427.95  36.285  23.273
 428.45  36.157  23.304
 428.95  36.157  23.242
 429.45  36.221  23.304
 429.95  36.157  23.273
 430.45  36.285  23.273
 430.95  36.221  23.304
 431.45  36.221  23.273
 431.95  36.157  23.273
 432.45  36.221  23.304
 432.95  36.285  23.273
 433.45  36.285  23.273
 433.95  36.285  23.304
 434.45  36.285  23.273
 434.95  36.285  23.304
 435.45  36.285  23.304
 435.95  36.221  23.304
 436.45  36.285  23.304
 436.95  36.349  23.304
 437.45  36.285  23.304
 437.95  36.285  23.304
 438.45  36.285  23.304
 438.95  36.285  23.304
 439.45  36.285  23.242
 439.95  36.285  23.304
 440.45  36.285  23.304
 440.95  36.349  23.273
 441.45  36.349  23.304
 441.95  36.221  23.273
 442.45  36.285  23.273
 442.96  36.541  23.273
 443.46  36.285  23.273
 443.96  36.349  23.304
 444.46  36.349  23.304
 444.96  36.349  23.273
 445.46  36.349  23.242
 445.96  36.349  23.242
 446.46  36.349  23.304
 446.96  36.413  23.304
 447.46  36.413  23.304
 447.96  36.413  23.304
 448.46  36.413  23.273
 448.96  36.413  23.304
 449.46  36.413  23.304
 449.96  36.477  23.273
 450.46  36.413  23.304
 450.96  36.413  23.304
 451.46  36.477  23.304
 451.96  36.477  23.304
 452.46  36.413  23.304
 452.96  36.285  23.273
 453.46  36.413  23.304
 453.96  36.477  23.273
 454.46  36.477  23.304
 454.96  36.477  23.273
 455.46  36.477  23.273
 455.96  36.477  23.304
 456.46  36.477  23.273
 456.96  36.477  23.304
 457.46  36.477  23.304
 457.96  36.413  23.304
 458.46  36.541  23.304
 458.96  36.477  23.273
 459.46  36.477  23.273
 459.96  36.541  23.304
 460.46  36.541  23.273
 460.96  36.477  23.304
 461.46  36.413  23.304
 461.96  36.541  23.304
 462.46  36.477  23.304
 462.96  36.541  23.242
 463.46  36.541  23.304
 463.96  36.541  23.335
 464.46  36.541  23.304
 464.96  36.541  23.304
 465.46  36.541  23.304
 465.96  36.477  23.304
 466.46  36.541  23.273
 466.96  36.541  23.273
 467.46  36.541  23.304
 467.96  36.541  23.273
 468.46  36.669  23.304
 468.96  36.605  23.304
 469.46  36.541  23.304
 469.96  36.541  23.273
 470.46  36.541  23.304
 470.96  36.541  23.273
 471.46  36.605  23.273
 471.96  36.541  23.273
 472.46  36.605  23.335
 472.96  36.605  23.273
 473.46  36.605  23.304
 473.96  36.605  23.273
 474.46  36.605  23.273
 474.96  36.605  23.304
 475.46  36.605  23.304
 475.96  36.605  23.304
 476.46  36.669  23.304
 476.96  36.605  23.304
 477.46  36.605  23.273
 477.96  36.605  23.304
 478.46  36.605  23.304
 478.96  36.669  23.304
 479.46  36.669  23.304
 479.96  36.605  23.304
 480.46  36.733  23.304
 480.96  36.669  23.273
 481.46  36.605  23.304
 481.96  36.733  23.304
 482.46  36.733  23.304
 482.96  36.669  23.273
 483.46  36.733  23.304
 483.96  36.669  23.335
 484.46  36.669  23.304
 484.96  36.733  23.273
 485.46  36.605  23.273
 485.96  36.733  23.304
 486.46  36.605  23.273
 486.96  36.669  23.304
 487.46  36.733  23.304
 487.96  36.797  23.304
 488.46  36.733  23.304
 488.96  36.797  23.273
 489.46  36.669  23.273
 489.96  36.797  23.304
 490.46  36.669  23.242
 490.96  36.733  23.304
 491.46  36.733  23.273
 491.96  36.733  23.304
 492.46  36.797  23.273
 492.96  36.797  23.366
 493.46  36.733  23.335
 493.96  36.733  23.335
 494.46  36.733  23.304
 494.96  36.797  23.273
 495.46  36.733  23.304
 495.96  36.861  23.273
 496.46  36.733  23.273
 496.96  36.797  23.304
 497.46  36.797  23.304
 497.96  36.797  23.273
 498.46  36.733  23.304
 498.96  36.733  23.304
 499.46  36.733  23.304
 499.96  36.797  23.304
 500.46  36.797  23.304
 500.96  36.797  23.304
 501.46  36.861  23.273
 501.96  36.797  23.335
 502.46  36.797  23.273
 502.96  36.797  23.273
 503.46  36.925  23.304
 503.96  36.797  23.273
 504.46  36.797  23.304
 504.96  36.733  23.335
 505.46  36.861  23.304
 505.96  36.861  23.304
 506.46  36.925  23.304
 506.96  36.797  23.304
 507.46  36.861  23.304
 507.96  36.861  23.304
 508.46  36.861  23.304
 508.96  36.861  23.273
 509.46  36.861  23.273
 509.96  36.861  23.335
 510.46  36.797  23.304
 510.96  36.925  23.304
 511.46  36.925  23.304
 511.96  36.925  23.304
 512.46  36.925  23.366
 512.96  36.989  23.304
 513.46  36.925  23.335
 513.96  36.925  23.304
 514.46  36.925  23.304
 514.96  36.925  23.304
 515.46  36.989  23.273
 515.96  36.925  23.304
 516.46  36.861  23.304
 516.96  36.861  23.304
 517.46  36.925  23.304
 517.96  36.989  23.273
 518.46  36.925  23.304
 518.96  36.925  23.304
 519.46  36.989  23.304
 519.96  36.925  23.273
 520.46  36.925  23.335
 520.96  36.989  23.304
 521.46  36.925  23.335
 521.96  36.989  23.304
 522.46  36.989  23.273
 522.96  37.053  23.304
 523.46  36.989  23.304
 523.96  36.925  23.304
 524.46  36.989  23.335
 524.96  36.925  23.304
 525.46  36.989  23.304
 525.96  36.989  23.304
 526.46  36.989  23.304
 526.96  36.989  23.304
 527.46  36.989  23.304
 527.96  37.053  23.304
 528.46  36.861  23.304
 528.96  36.925  23.335
 529.46  37.053  23.335
 529.96  37.053  23.242
 530.46  37.053  23.304
 530.96  37.053  23.304
 531.46  37.117  23.304
 531.96  36.989  23.335
 532.46  37.117  23.242
 532.96  36.989  23.304
 533.46  37.053  23.304
 533.96  37.053  23.304
 534.46  37.053  23.304
 534.96  37.053  23.304
 535.46  36.989  23.304
 535.96  37.053  23.304
 536.46  37.053  23.304
 536.96  37.117  23.335
 537.46  37.053  23.304
 537.96  36.989  23.304
 538.46  37.053  23.304
 538.96  37.053  23.273
 539.46  37.117  23.304
 539.96  37.181  23.304
 540.46  37.117  23.304
 540.96  37.181  23.304
 541.46  37.181  23.335
 541.96  37.117  23.242
 542.46  37.053  23.335
 542.96  37.181  23.335
 543.46  37.181  23.335
 543.96  37.181  23.304
 544.46  37.117  23.304
 544.97  37.181  23.273
 545.47  37.117  23.273
 545.97  37.117  23.304
 546.47  37.117  23.304
 546.97  37.181  23.304
 547.47  37.181  23.304
 547.97  37.117  23.304
 548.47  37.181  23.304
 548.97  37.117  23.273
 549.47  37.181  23.273
 549.97  37.181  23.273
 550.47  37.245  23.335
 550.97  37.117  23.273
 551.47  37.181  23.335
 551.97  37.117  23.304
 552.47  37.245  23.304
 552.97  37.181  23.304
 553.47  37.181  23.304
 553.97  37.117  23.273
 554.47  37.181  23.304
 554.97  37.181  23.273
 555.47  37.181  23.304
 555.97  37.181  23.304
 556.47  37.117  23.242
 556.97  37.245  23.304
 557.47  37.181  23.304
 557.97  37.181  23.304
 558.47  37.181  23.304
 558.97  37.181  23.273
 559.47  37.181  23.304
 559.97  37.245  23.304
 560.47  37.245  23.335
 560.97  37.245  23.304
 561.47  37.245  23.304
 561.97  37.245  23.304
 562.47  37.245  23.273
 562.97  37.245  23.304
 563.47  37.245  23.273
 563.97  37.117  23.335
 564.47  37.373  23.366
 564.97  37.245  23.335
 565.47  37.245  23.335
 565.97  37.245  23.335
 566.47  37.309  23.304
 566.97  37.245  23.335
 567.47  37.245  23.335
 567.97  37.309  23.335
 568.47  37.245  23.242
 568.97  37.309  23.304
 569.47  37.309  23.335
 569.97  37.181  23.304
 570.47  37.309  23.304
 570.97  37.373  23.304
 571.47  37.373  23.304
 571.97  37.245  23.304
 572.47  37.245  23.335
 572.97  37.309  23.335
 573.47  37.373  23.335
 573.97  37.373  23.335
 574.47  37.373  23.335
 574.97  37.373  23.335
 575.47  37.373  23.335
 575.97  37.373  23.335
 576.47  37.309  23.335
 576.97  37.309  23.304
 577.47  37.437  23.304
 577.97  37.373  23.335
 578.47  37.245  23.335
 578.97  37.309  23.335
 579.47  37.309  23.304
 579.97  37.373  23.335
 580.47  37.373  23.335
 580.97  37.373  23.304
 581.47  37.373  23.304
 581.97  37.437  23.304
 582.47  37.309  23.335
 582.97  37.373  23.335
 583.47  37.373  23.273
 583.97  37.373  23.335
 584.47  37.373  23.335
 584.97  37.309  23.366
 585.47  37.373  23.304
 585.97  37.373  23.304
 586.47  37.373  23.273
 586.97  37.437  23.366
 587.47  37.373  23.335
 587.97  37.437  23.304
 588.47  37.437  23.335
 588.97  37.373  23.335
 589.47  37.437  23.304
 589.97  37.373  23.304
 590.47  37.437  23.335
 590.97  37.373  23.335
 591.47  37.501  23.304
 591.97  37.373  23.304
 592.47  37.437  23.304
 592.97  37.437  23.304
 593.47  37.437  23.304
 593.97  37.437  23.304
 594.47  37.437  23.304
 594.97  37.501  23.335
 595.47  37.501  23.273
 595.97  37.437  23.335
 596.47  37.501  23.304
 596.97  37.437  23.304
 597.47  37.501  23.335
 597.97  37.565  23.335
 598.47  37.501  23.335
 598.97  37.437  23.335
 599.47  37.501  23.304
 599.97  37.437  23.304
 600.47  37.501  23.335
 600.97  37.501  23.304
 601.47  37.565  23.335
 601.97  37.501  23.335
 602.47  37.501  23.304
 602.97  37.565  23.304
 603.47  37.501  23.335
 603.97  37.565  23.366
 604.47  37.565  23.335
 604.97  37.501  23.335
 605.47  37.501  23.335
 605.97  37.501  23.335
 606.47  37.565  23.335
 606.97  37.565  23.304
 607.47  37.565  23.335
 607.97  37.629  23.335
 608.47  37.565  23.335
 608.97  37.565  23.304
 609.47  37.501  23.304
 609.97  37.501  23.366
 610.47  37.565  23.335
 610.97  37.501  23.304
 611.47  37.565  23.273
 611.97  37.565  23.335
 612.47  37.565  23.304
 612.97  37.565  23.335
 613.47  37.501  23.335
 613.97  37.565  23.366
 614.47  37.565  23.366
 614.97  37.565  23.335
 615.47  37.565  23.335
 615.97  37.565  23.304
 616.47  37.565  23.335
 616.97  37.565  23.366
 617.47  37.565  23.335
 617.97  37.629  23.304
 618.47  37.629  23.366
 618.97  37.629  23.304
 619.47  37.629  23.335
 619.97  37.565  23.304
 620.47  37.629  23.366
 620.97  37.629  23.335
 621.47  37.629  23.335
 621.97  37.629  23.304
 622.47  37.629  23.304
 622.97  37.693  23.304
 623.47  37.693  23.335
 623.97  37.693  23.335
 624.47  37.757  23.335
 624.97  37.693  23.304
 625.47  37.629  23.335
 625.97  37.629  23.304
 626.47  37.629  23.304
 626.97  37.629  23.304
 627.47  37.693  23.335
 627.97  37.629  23.335
 628.47  37.693  23.304
 628.97  37.629  23.335
 629.47  37.629  23.273
 629.97  37.629  23.335
 630.47  37.693  23.335
 630.97  37.821  23.335
 631.47  37.693  23.335
 631.97  37.629  23.335
 632.47  37.693  23.335
 632.97  37.693  23.304
 633.47  37.693  23.335
 633.97  37.693  23.335
 634.47  37.757  23.335
 634.97  37.629  23.366
 635.47  37.693  23.304
 635.97  37.693  23.366
 636.47  37.693  23.335
 636.97  37.693  23.335
 637.47  37.757  23.366
 637.97  37.693  23.366
 638.47  37.757  23.335
 638.97  37.757  23.335
 639.47  37.757  23.366
 639.97  37.757  23.304
 640.47  37.757  23.396
 640.97  37.693  23.366
 641.47  37.821  23.335
 641.97  37.757  23.335
 642.47  37.757  23.335
 642.97  37.757  23.366
 643.47  37.757  23.335
 643.97  37.757  23.335
 644.47  37.757  23.304
 644.97  37.821  23.335
 645.47  37.757  23.304
 645.97  37.821  23.335
 646.47  37.757  23.335
 646.97  37.757  23.273
 647.47  37.757  23.335
 647.97  37.757  23.335
 648.47  37.821  23.335
 648.97  37.821  23.304
 649.47  37.885  23.335
 649.97  37.757  23.335
 650.47  37.757  23.335
 650.97  37.885  23.335
 651.47  37.757  23.335
 651.97  37.693  23.273
 652.47  37.757  23.335
 652.97  37.821  23.335
 653.47  37.693  23.335
 653.97  37.821  23.335
 654.47  37.821  23.335
 654.97  37.757  23.335
 655.47  37.821  23.396
 655.97  37.821  23.366
 656.47  37.757  23.335
 656.97  37.757  23.366
 657.47  37.757  23.304
 657.97  37.885  23.335
 658.48  37.821  23.335
 658.98  37.821  23.304
 659.48  37.949  23.304
 659.98  37.821  23.335
 660.48  37.821  23.335
 660.98  37.821  23.335
 661.48  37.821  23.335
 661.98  37.885  23.335
 662.48  37.821  23.335
 662.98  37.821  23.335
 663.48  37.821  23.304
 663.98  37.885  23.366
 664.48  37.885  23.366
 664.98  37.821  23.335
 665.48  37.821  23.304
 665.98  37.885  23.366
 666.48  37.821  23.366
 666.98  37.885  23.366
 667.48  37.885  23.366
 667.98  37.885  23.335
 668.48  37.821  23.335
 668.98  37.885  23.335
 669.48  37.949  23.304
 669.98  37.949  23.366
 670.48  37.885  23.304
 670.98  37.949  23.335
 671.48  37.885  23.304
 671.98  37.885  23.335
 672.48  37.885  23.335
 672.98  37.821  23.335
 673.48  37.885  23.366
 673.98  37.885  23.366
 674.48  37.885  23.335
 674.98  37.885  23.335
 675.48  37.885  23.335
 675.98  37.885  23.335
 676.48  38.013  23.335
 676.98  37.949  23.335
 677.48  37.885  23.366
 677.98  37.885  23.335
 678.48  37.821  23.335
 678.98  37.949  23.335
 679.48  37.949  23.335
 679.98  37.949  23.304
 680.48  37.949  23.335
 680.98  37.885  23.335
 681.48  37.949  23.366
 681.98  37.949  23.335
 682.48  38.013  23.335
 682.98  38.013  23.335
 683.48  38.013  23.335
 683.98  37.949  23.335
 684.48  37.949  23.335
 684.98  37.949  23.335
 685.48  37.949  23.335
 685.98  37.949  23.366
 686.48  38.013  23.335
 686.98  37.949  23.335
 687.48  37.949  23.335
 687.98  38.013  23.304
 688.48  37.885  23.366
 688.98  38.013  23.335
 689.48  37.949  23.335
 689.98  37.949  23.304
 690.48  37.885  23.335
 690.98  37.949  23.335
 691.48  37.949  23.335
 691.98  37.949  23.366
 692.48  38.013  23.335
 692.98  38.013  23.335
 693.48  38.013  23.335
 693.98  37.949  23.335
 694.48  38.013  23.335
 694.98  38.013  23.396
 695.48  38.013  23.335
 695.98  38.013  23.335
 696.48  37.949  23.366
 696.98  38.077  23.335
 697.48  38.013  23.396
 697.98  38.013  23.335
 698.48  38.013  23.335
 698.98  38.013  23.366
 699.48  38.077  23.335
 699.98  38.013  23.366
 700.48  38.077  23.335
 700.98  38.013  23.396
 701.48  38.013  23.366
 701.98  37.949  23.366
 702.48  38.077  23.366
 702.98  38.013  23.335
 703.48  38.013  23.335
 703.98  38.013  23.366
 704.48  38.077  23.366
 704.98  38.077  23.396
 705.48  38.077  23.335
 705.98  38.141  23.366
 706.48  38.141  23.366
 706.98  38.013  23.366
 707.48  38.077  23.335
 707.98  38.077  23.366
 708.48  38.077  23.335
 708.98  38.077  23.335
 709.48  38.077  23.366
 709.98  38.077  23.335
 710.48  38.077  23.366
 710.98  38.013  23.366
 711.48  38.141  23.366
 711.98  38.077  23.335
 712.48  38.205  23.335
 712.98  38.077  23.366
 713.48  38.141  23.335
 713.98  38.141  23.335
 714.48  38.013  23.335
 714.98  38.077  23.366
 715.48  38.077  23.335
 715.98  38.077  23.335
 716.48  38.141  23.366
 716.98  38.205  23.335
 717.48  38.141  23.335
 717.98  38.141  23.366
 718.48  38.141  23.366
 718.98  38.077  23.396
 719.48  38.141  23.366
 719.98  38.141  23.366
 720.48  38.141  23.366
 720.98  38.141  23.335
 721.48  38.141  23.335
 721.98  38.141  23.335
 722.48  38.141  23.335
 722.98  38.141  23.335
 723.48  38.141  23.366
 723.98  38.205  23.335
 724.48  38.077  23.335
 724.98  38.141  23.335
 725.48  38.205  23.335
 725.98  38.141  23.335
 726.48  38.141  23.366
 726.98  38.205  23.427
 727.48  38.205  23.335
 727.98  38.205  23.366
 728.48  38.141  23.304
 728.98  38.205  23.335
 729.48  38.205  23.335
 729.98  38.141  23.366
 730.48  38.141  23.335
 730.98  38.141  23.366
 731.48  38.205  23.335
 731.98  38.269  23.335
 732.48  38.205  23.304
 732.98  38.141  23.396
 733.48  38.269  23.335
 733.98  38.205  23.396
 734.48  38.205  23.366
 734.98  38.141  23.335
 735.48  38.205  23.304
 735.98  38.141  23.335
 736.48  38.141  23.335
 736.98  38.269  23.366
 737.48  38.205  23.366
 737.98  38.269  23.366
 738.48  38.205  23.366
 738.98  38.205  23.396
 739.48  38.205  23.335
 739.98  38.269  23.335
 740.48  38.205  23.335
 740.98  38.205  23.396
 741.48  38.141  23.366
 741.98  38.205  23.366
 742.48  38.205  23.335
 742.98  38.269  23.366
 743.48  38.269  23.366
 743.98  38.269  23.335
 744.48  38.397  23.335
 744.98  38.269  23.366
 745.48  38.333  23.335
 745.98  38.333  23.304
 746.48  38.269  23.366
 746.98  38.269  23.396
 747.48  38.269  23.366
 747.98  38.333  23.366
 748.48  38.205  23.335
 748.98  38.269  23.304
 749.48  38.333  23.335
 749.98  38.333  23.335
 750.48  38.269  23.366
 750.98  38.333  23.335
 751.48  38.205  23.366
 751.98  38.269  23.304
 752.48  38.333  23.335
 752.98  38.333  23.366
 753.48  38.269  23.335
 753.98  38.269  23.366
 754.48  38.333  23.304
 754.98  38.269  23.366
 755.48  38.269  23.335
 755.98  38.269  23.366
 756.48  38.269  23.335
 756.98  38.397  23.335
 757.48  38.269  23.304
 757.98  38.269  23.427
 758.48  38.333  23.304
 758.98  38.269  23.335
 759.48  38.269  23.366
 759.98  38.333  23.335
 760.48  38.333  23.366
 760.98  38.397  23.335
 761.48  38.333  23.396
 761.98  38.269  23.335
 762.48  38.333  23.366
 762.98  38.333  23.335
 763.48  38.333  23.366
 763.98  38.333  23.396
 764.48  38.397  23.366
 764.98  38.333  23.366
 765.48  38.269  23.366
 765.98  38.333  23.335
 766.48  38.333  23.335
 766.98  38.333  23.335
 767.48  38.333  23.335
 767.98  38.333  23.366
 768.48  38.333  23.335
 768.98  38.333  23.366
 769.48  38.397  23.366
 769.98  38.333  23.335
 770.48  38.397  23.335
 770.98  38.333  23.335
 771.49  38.397  23.366
 771.99  38.397  23.366
 772.49  38.333  23.396
 772.99  38.397  23.366
 773.49  38.397  23.366
 773.99  38.397  23.366
 774.49  38.397  23.335
 774.99  38.333  23.396
 775.49  38.333  23.335
 775.99  38.461  23.366
 776.49  38.397  23.366
 776.99  38.397  23.366
 777.49  38.269  23.335
 777.99  38.333  23.366
 778.49  38.397  23.366
 778.99  38.333  23.366
 779.49  38.397  23.396
 779.99  38.461  23.335
 780.49  38.397  23.366
 780.99  38.397  23.366
 781.49  38.461  23.366
 781.99  38.397  23.366
 782.49  38.397  23.366
 782.99  38.461  23.366
 783.49  38.333  23.366
 783.99  38.525  23.366
 784.49  38.461  23.366
 784.99  38.461  23.396
 785.49  38.461  23.396
 785.99  38.397  23.396
 786.49  38.397  23.396
 786.99  38.461  23.396
 787.49  38.461  23.427
 787.99  38.397  23.396
 788.49  38.525  23.396
 788.99  38.461  23.427
 789.49  38.397  23.366
 789.99  38.461  23.396
 790.49  38.461  23.335
 790.99  38.397  23.396
 791.49  38.461  23.396
 791.99  38.461  23.366
 792.49  38.525  23.366
 792.99  38.397  23.366
 793.49  38.461  23.366
 793.99  38.525  23.366
 794.49  38.461  23.366
 794.99  38.461  23.396
 795.49  38.525  23.396
 795.99  38.461  23.366
 796.49  38.525  23.366
 796.99  38.461  23.366
 797.49  38.461  23.396
 797.99  38.397  23.366
 798.49  38.461  23.396
 798.99  38.461  23.396
 799.49  38.461  23.366
 799.99  38.461  23.458
 800.49  38.589  23.396
 800.99  38.525  23.366
 801.49  38.589  23.366
 801.99  38.461  23.396
 802.49  38.461  23.366
 802.99  38.525  23.366
 803.49  38.525  23.366
 803.99  38.525  23.396
 804.49  38.525  23.366
 804.99  38.525  23.366
 805.49  38.525  23.366
 805.99  38.525  23.396
 806.49  38.525  23.396
 806.99  38.525  23.396
 807.49  38.461  23.366
 807.99  38.525  23.366
 808.49  38.589  23.396
 808.99  38.525  23.396
 809.49  38.525  23.427
 809.99  38.525  23.335
 810.49  38.589  23.396
 810.99  38.525  23.366
 811.49  38.525  23.366
 811.99  38.589  23.396
 812.49  38.525  23.427
 812.99  38.589  23.396
 813.49  38.589  23.427
 813.99  38.525  23.366
 814.49  38.589  23.366
 814.99  38.525  23.396
 815.49  38.525  23.396
 815.99  38.589  23.366
 816.49  38.525  23.366
 816.99  38.589  23.396
 817.49  38.525  23.396
 817.99  38.525  23.396
 818.49  38.653  23.396
 818.99  38.589  23.396
 819.49  38.653  23.366
 819.99  38.589  23.396
 820.49  38.525  23.396
 820.99  38.589  23.396
 821.49  38.589  23.396
 821.99  38.589  23.366
 822.49  38.653  23.427
 822.99  38.589  23.366
 823.49  38.589  23.396
 823.99  38.589  23.366
 824.49  38.525  23.396
 824.99  38.589  23.366
 825.49  38.653  23.366
 825.99  38.589  23.396
 826.49  38.589  23.396
 826.99  38.653  23.366
 827.49  38.589  23.366
 827.99  38.653  23.458
 828.49  38.653  23.396
 828.99  38.525  23.396
 829.49  38.589  23.366
 829.99  38.653  23.366
 830.49  38.717  23.396
 830.99  38.653  23.335
 831.49  38.653  23.366
 831.99  38.653  23.396
 832.49  38.653  23.335
 832.99  38.717  23.396
 833.49  38.717  23.366
 833.99  38.589  23.396
 834.49  38.589  23.396
 834.99  38.589  23.366
 835.49  38.525  23.396
 835.99  38.653  23.396
 836.49  38.653  23.396
 836.99  38.653  23.366
 837.49  38.653  23.396
 837.99  38.653  23.366
 838.49  38.653  23.396
 838.99  38.653  23.396
 839.49  38.653  23.366
 839.99  38.653  23.427
 840.49  38.653  23.366
 840.99  38.717  23.366
 841.49  38.653  23.366
 841.99  38.653  23.366
 842.49  38.589  23.366
 842.99  38.653  23.366
 843.49  38.717  23.366
 843.99  38.653  23.396
 844.49  38.653  23.366
 844.99  38.589  23.396
 845.49  38.717  23.396
 845.99  38.717  23.427
 846.49  38.717  23.366
 846.99  38.653  23.489
 847.49  38.653  23.396
 847.99  38.717  23.366
 848.49  38.717  23.396
 848.99  38.653  23.396
 849.49  38.653  23.396
 849.99  38.653  23.366
 850.49  38.909  23.335
 850.99  38.717  23.335
 851.49  38.717  23.396
 851.99  38.653  23.396
 852.49  38.653  23.396
 852.99  38.589  23.396
 853.49  38.717  23.427
 853.99  38.717  23.366
 854.49  38.717  23.396
 854.99  38.781  23.396
 855.49  38.781  23.396
 855.99  38.653  23.366
 856.49  38.909  23.396
 856.99  38.717  23.366
 857.49  38.717  23.396
 857.99  38.589  23.396
 858.49  38.781  23.366
 858.99  38.717  23.396
 859.49  38.717  23.396
 859.99  38.717  23.427
 860.49  38.717  23.427
 860.99  38.717  23.366
 861.49  38.717  23.396
 861.99  38.717  23.366
 862.49  38.781  23.366
 862.99  38.781  23.396
 863.49  38.717  23.396
 863.99  38.717  23.335
 864.49  38.781  23.396
 864.99  38.717  23.396
 865.49  38.781  23.396
 865.99  38.717  23.396
 866.49  38.717  23.396
 866.99  38.781  23.396
 867.49  38.781  23.396
 867.99  38.781  23.396
 868.49  38.781  23.396
 868.99  38.717  23.396
 869.49  38.781  23.427
 869.99  38.845  23.366
 870.49  38.845  23.396
 870.99  38.781  23.396
 871.49  38.781  23.366
 871.99  38.781  23.366
 872.49  38.845  23.396
 872.99  38.781  23.366
 873.49  38.781  23.366
 873.99  38.781  23.366
 874.49  38.781  23.396
 874.99  38.717  23.396
 875.49  38.717  23.396
 875.99  38.781  23.335
 876.49  38.781  23.396
 876.99  38.781  23.427
 877.49  38.845  23.366
 877.99  38.781  23.396
 878.49  38.781  23.396
 878.99  38.781  23.366
 879.49  38.717  23.396
 879.99  38.845  23.396
 880.49  38.781  23.366
 880.99  38.845  23.396
 881.49  38.781  23.396
 881.99  38.781  23.366
 882.49  38.781  23.366
 882.99  38.781  23.396
 883.49  38.781  23.396
 883.99  38.845  23.366
 884.50  38.781  23.396
 885.00  38.845  23.396
 885.50  38.845  23.366
 886.00  38.845  23.366
 886.50  38.845  23.396
 887.00  38.845  23.366
 887.50  38.845  23.427
 888.00  38.781  23.396
 888.50  38.845  23.427
 889.00  38.845  23.427
 889.50  38.781  23.396
 890.00  38.909  23.396
 890.50  38.717  23.366
 891.00  38.845  23.366
 891.50  38.845  23.396
 892.00  38.781  23.427
 892.50  39.037  23.366
 893.00  38.845  23.366
 893.50  38.845  23.427
 894.00  38.845  23.366
 894.50  38.845  23.366
 895.00  38.845  23.366
 895.50  38.845  23.396
 896.00  38.717  23.396
 896.50  38.845  23.366
 897.00  38.845  23.396
 897.50  38.909  23.396
 898.00  38.845  23.366
 898.50  38.845  23.366
 899.00  38.845  23.396
 899.50  38.909  23.366
 900.00  38.845  23.366
 900.50  38.845  23.396
 901.00  38.909  23.396
 901.50  38.909  23.396
 902.00  38.845  23.366
 902.50  38.909  23.396
 903.00  38.909  23.396
 903.50  38.909  23.396
 904.00  38.909  23.396
 904.50  38.845  23.427
 905.00  38.845  23.366
 905.50  38.845  23.396
 906.00  38.845  23.366
 906.50  38.909  23.396
 907.00  38.909  23.396
 907.50  38.973  23.366
 908.00  38.909  23.396
 908.50  38.973  23.396
 909.00  38.909  23.489
 909.50  38.909  23.427
 910.00  38.845  23.366
 910.50  38.909  23.366
 911.00  38.845  23.396
 911.50  38.909  23.366
 912.00  38.845  23.366
 912.50  38.973  23.427
 913.00  38.909  23.396
 913.50  38.845  23.396
 914.00  38.973  23.396
 914.50  38.973  23.396
 915.00  38.909  23.366
 915.50  38.845  23.396
 916.00  38.909  23.396
 916.50  38.909  23.427
 917.00  38.845  23.427
 917.50  38.973  23.366
 918.00  38.973  23.396
 918.50  38.909  23.396
 919.00  38.845  23.396
 919.50  38.973  23.427
 920.00  38.973  23.366
 920.50  38.909  23.427
 921.00  38.973  23.396
 921.50  38.973  23.427
 922.00  38.973  23.427
 922.50  38.845  23.427
 923.00  38.973  23.366
 923.50  39.037  23.427
 924.00  38.909  23.396
 924.50  38.973  23.427
 925.00  39.037  23.396
 925.50  39.037  23.427
 926.00  38.909  23.396
 926.50  38.973  23.427
 927.00  39.037  23.396
 927.50  38.973  23.396
 928.00  38.909  23.396
 928.50  38.973  23.396
 929.00  38.973  23.396
 929.50  38.973  23.396
 930.00  38.973  23.396
 930.50  38.973  23.396
 931.00  38.973  23.396
 931.50  38.973  23.396
 932.00  38.973  23.427
 932.50  38.973  23.396
 933.00  38.973  23.458
 933.50  39.101  23.427
 934.00  38.909  23.427
 934.50  38.973  23.396
 935.00  38.909  23.396
 935.50  39.037  23.396
 936.00  38.973  23.396
 936.50  38.973  23.396
 937.00  38.909  23.396
 937.50  38.973  23.396
 938.00  38.973  23.396
 938.50  38.973  23.396
 939.00  39.037  23.396
 939.50  39.037  23.396
 940.00  39.037  23.396
 940.50  38.973  23.427
 941.00  39.037  23.427
 941.50  38.973  23.427
 942.00  38.973  23.396
 942.50  39.037  23.366
 943.00  38.973  23.427
 943.50  39.037  23.396
 944.00  39.037  23.396
 944.50  39.037  23.396
 945.00  39.037  23.366
 945.50  39.037  23.396
 946.00  39.037  23.396
 946.50  39.037  23.427
 947.00  38.973  23.427
 947.50  38.973  23.396
 948.00  38.909  23.427
 948.50  39.037  23.427
 949.00  39.037  23.396
 949.50  39.037  23.366
 950.00  39.037  23.427
 950.50  39.037  23.396
 951.00  39.037  23.366
 951.50  38.973  23.427
 952.00  39.037  23.458
 952.50  38.973  23.396
 953.00  39.037  23.396
 953.50  38.973  23.427
 954.00  39.037  23.366
 954.50  39.101  23.396
 955.00  38.973  23.396
 955.50  39.037  23.396
 956.00  39.101  23.427
 956.50  39.101  23.396
 957.00  39.037  23.396
 957.50  39.037  23.427
 958.00  39.101  23.427
 958.50  38.973  23.366
 959.00  39.037  23.396
 959.50  39.037  23.427
 960.00  39.101  23.427
 960.50  39.037  23.427
 961.00  39.101  23.427
 961.50  39.037  23.427
 962.00  39.037  23.427
 962.50  39.037  23.427
 963.00  39.037  23.427
 963.50  39.037  23.396
 964.00  39.165  23.458
 964.50  39.101  23.458
 965.00  39.101  23.427
 965.50  39.037  23.396
 966.00  39.101  23.396
 966.50  39.101  23.427
 967.00  39.037  23.396
 967.50  39.101  23.427
 968.00  39.101  23.427
 968.50  39.101  23.396
 969.00  39.101  23.396
 969.50  39.101  23.427
 970.00  39.101  23.458
 970.50  39.037  23.427
 971.00  39.101  23.458
 971.50  39.165  23.458
 972.00  39.101  23.427
 972.50  39.165  23.396
 973.00  39.101  23.396
 973.50  39.229  23.396
 974.00  39.101  23.458
 974.50  39.101  23.427
 975.00  39.101  23.427
 975.50  39.165  23.396
 976.00  39.165  23.427
 976.50  39.165  23.396
 977.00  39.165  23.427
 977.50  39.037  23.396
 978.00  39.101  23.427
 978.50  39.165  23.427
 979.00  39.165  23.489
 979.50  39.101  23.427
 980.00  39.101  23.458
 980.50  39.165  23.427
 981.00  39.101  23.427
 981.50  39.165  23.427
 982.00  39.165  23.427
 982.50  39.165  23.335
 983.00  39.037  23.396
 983.50  39.165  23.427
 984.00  39.165  23.427
 984.50  39.101  23.458
 985.00  39.101  23.427
 985.50  39.165  23.396
 986.00  39.485  23.427
 986.50  39.165  23.427
 987.00  39.165  23.396
 987.50  39.165  23.489
 988.00  39.101  23.427
 988.50  39.101  23.427
 989.00  39.165  23.458
 989.50  39.165  23.458
 990.00  39.165  23.396
 990.50  39.165  23.489
 991.00  39.165  23.427
 991.50  39.165  23.427
 992.00  39.229  23.458
 992.50  39.165  23.427
 993.00  39.165  23.427
 993.50  39.165  23.427
 994.00  39.165  23.427
 994.50  39.165  23.458
 995.00  39.165  23.427
 995.50  39.165  23.427
 996.00  39.229  23.396
 996.50  39.293  23.396
 997.00  39.165  23.396
 997.50  39.165  23.427
 998.00  39.165  23.396
 998.50  39.165  23.458
 999.00  39.165  23.458
 999.50  39.229  23.427
1000.00  39.165  23.458
1000.50  39.229  23.489
1001.00  39.229  23.427
1001.50  39.229  23.427
1002.00  39.229  23.427
1002.50  39.229  23.396
1003.00  39.229  23.427
1003.50  39.229  23.427
1004.00  39.229  23.427
1004.50  39.229  23.458
1005.00  39.229  23.427
1005.50  39.165  23.427
1006.00  39.229  23.427
1006.50  39.229  23.427
1007.00  39.229  23.489
1007.50  39.229  23.427
1008.00  39.229  23.427
1008.51  39.229  23.427
1009.01  39.229  23.427
1009.51  39.165  23.427
1010.01  39.229  23.427
1010.51  39.229  23.458
1011.01  39.229  23.427
1011.51  39.165  23.427
1012.01  39.229  23.396
1012.51  39.293  23.427
1013.01  39.229  23.427
1013.51  39.229  23.427
1014.01  39.229  23.427
1014.51  39.229  23.427
1015.01  39.229  23.458
1015.51  39.293  23.427
1016.01  39.165  23.427
1016.51  39.293  23.427
1017.01  39.229  23.427
1017.51  39.229  23.396
1018.01  39.229  23.458
1018.51  39.165  23.427
1019.01  39.165  23.427
1019.51  39.293  23.458
1020.01  39.229  23.396
1020.51  39.293  23.427
1021.01  39.229  23.427
1021.51  39.293  23.427
1022.01  39.229  23.427
1022.51  39.229  23.427
1023.01  39.293  23.458
1023.51  39.229  23.458
1024.01  39.293  23.427
1024.51  39.229  23.427
1025.01  39.293  23.458
1025.51  39.165  23.427
1026.01  39.293  23.427
1026.51  39.293  23.427
1027.01  39.293  23.458
1027.51  39.293  23.427
1028.01  39.293  23.458
1028.51  39.229  23.427
1029.01  39.229  23.427
1029.51  39.293  23.427
1030.01  39.165  23.427
1030.51  39.293  23.458
1031.01  39.229  23.396
1031.51  39.293  23.458
1032.01  39.293  23.427
1032.51  39.229  23.396
1033.01  39.293  23.427
1033.51  39.293  23.427
1034.01  39.357  23.396
1034.51  39.229  23.427
1035.01  39.293  23.427
1035.51  39.293  23.427
1036.01  39.293  23.427
1036.51  39.357  23.458
1037.01  39.293  23.427
1037.51  39.293  23.458
1038.01  39.293  23.427
1038.51  39.293  23.489
1039.01  39.293  23.427
1039.51  39.293  23.427
1040.01  39.293  23.396
1040.51  39.229  23.396
1041.01  39.293  23.458
1041.51  39.293  23.427
1042.01  39.357  23.396
1042.51  39.293  23.458
1043.01  39.293  23.427
1043.51  39.357  23.396
1044.01  39.293  23.427
1044.51  39.293  23.427
1045.01  39.293  23.458
1045.51  39.293  23.427
1046.01  39.357  23.458
1046.51  39.293  23.427
1047.01  39.293  23.427
1047.51  39.357  23.458
1048.01  39.357  23.396
1048.51  39.357  23.427
1049.01  39.421  23.396
1049.51  39.357  23.427
1050.01  39.421  23.427
1050.51  39.357  23.458
1051.01  39.357  23.427
1051.51  39.293  23.396
1052.01  39.357  23.427
1052.51  39.421  23.458
1053.01  39.357  23.489
1053.51  39.357  23.366
1054.01  39.357  23.427
1054.51  39.357  23.427
1055.01  39.357  23.427
1055.51  39.293  23.458
1056.01  39.357  23.427
1056.51  39.293  23.427
1057.01  39.229  23.458
1057.51  39.357  23.458
1058.01  39.357  23.458
1058.51  39.357  23.458
1059.01  39.357  23.458
1059.51  39.421  23.458
1060.01  39.357  23.427
1060.51  39.357  23.458
1061.01  39.357  23.458
1061.51  39.357  23.427
1062.01  39.421  23.458
1062.51  39.357  23.427
1063.01  39.549  23.458
1063.51  39.357  23.458
1064.01  39.357  23.427
1064.51  39.357  23.427
1065.01  39.357  23.427
1065.51  39.357  23.427
1066.01  39.293  23.427
1066.51  39.357  23.458
1067.01  39.357  23.427
1067.51  39.357  23.458
1068.01  39.485  23.427
1068.51  39.421  23.427
1069.01  39.357  23.458
1069.51  39.293  23.458
1070.01  39.421  23.427
1070.51  39.421  23.458
1071.01  39.421  23.489
1071.51  39.357  23.427
1072.01  39.421  23.458
1072.51  39.357  23.458
1073.01  39.357  23.458
1073.51  39.421  23.458
1074.01  39.357  23.427
1074.51  39.421  23.458
1075.01  39.421  23.396
1075.51  39.421  23.427
1076.01  39.421  23.458
1076.51  39.421  23.427
1077.01  39.421  23.427
1077.51  39.421  23.458
1078.01  39.357  23.427
1078.51  39.357  23.458
1079.01  39.357  23.458
1079.51  39.421  23.458
1080.01  39.421  23.427
1080.51  39.421  23.427
1081.01  39.549  23.458
1081.51  39.357  23.458
1082.01  39.485  23.489
1082.51  39.485  23.427
1083.01  39.485  23.458
1083.51  39.421  23.458
1084.01  39.357  23.458
1084.51  39.421  23.489
1085.01  39.421  23.427
1085.51  39.485  23.458
1086.01  39.421  23.458
1086.51  39.485  23.458
1087.01  39.421  23.458
1087.51  39.485  23.458
1088.01  39.421  23.458
1088.51  39.421  23.427
1089.01  39.421  23.458
1089.51  39.485  23.458
1090.01  39.485  23.458
1090.51  39.485  23.458
1091.01  39.485  23.458
1091.51  39.421  23.458
1092.01  39.421  23.427
1092.51  39.485  23.458
1093.01  39.485  23.458
1093.51  39.485  23.458
1094.01  39.485  23.458
1094.51  39.485  23.458
1095.01  39.485  23.458
1095.51  39.485  23.489
1096.01  39.485  23.427
1096.51  39.485  23.458
1097.01  39.485  23.489
1097.51  39.485  23.458
1098.01  39.485  23.458
1098.51  39.485  23.458
1099.01  39.485  23.458
1099.51  39.485  23.458
1100.01  39.485  23.489
1100.51  39.485  23.458
1101.01  39.485  23.427
1101.51  39.485  23.458
1102.01  39.421  23.458
1102.51  39.485  23.489
1103.01  39.485  23.427
1103.51  39.485  23.458
1104.01  39.485  23.489
1104.51  39.485  23.458
1105.01  39.485  23.427
1105.51  39.549  23.458
1106.01  39.613  23.458
1106.51  39.485  23.458
1107.01  39.485  23.458
1107.51  39.485  23.458
1108.01  39.613  23.458
1108.51  39.549  23.458
1109.01  39.485  23.458
1109.51  39.485  23.458
1110.01  39.549  23.458
1110.51  39.485  23.489
1111.02  39.421  23.458
1111.52  39.421  23.427
1112.02  39.549  23.396
1112.52  39.485  23.458
1113.02  39.485  23.489
1113.52  39.549  23.489
1114.02  39.485  23.458
1114.52  39.549  23.458
1115.02  39.485  23.458
1115.52  39.549  23.458
1116.02  39.549  23.427
1116.52  39.485  23.458
1117.02  39.549  23.458
1117.52  39.485  23.458
1118.02  39.549  23.458
1118.52  39.549  23.458
1119.02  39.549  23.489
1119.52  39.485  23.458
1120.02  39.485  23.489
1120.52  39.613  23.427
1121.02  39.485  23.458
1121.52  39.421  23.458
1122.02  39.549  23.458
1122.52  39.485  23.458
1123.02  39.485  23.489
1123.52  39.677  23.489
1124.02  39.485  23.489
1124.52  39.549  23.458
1125.02  39.549  23.489
1125.52  39.549  23.458
1126.02  39.549  23.489
1126.52  39.549  23.520
1127.02  39.549  23.458
1127.52  39.549  23.458
1128.02  39.613  23.458
1128.52  39.549  23.427
1129.02  39.677  23.427
1129.52  39.613  23.489
1130.02  39.549  23.489
1130.52  39.613  23.427
1131.02  39.677  23.458
1131.52  39.549  23.489
1132.02  39.613  23.489
1132.52  39.613  23.427
1133.02  39.549  23.458
1133.52  39.613  23.489
1134.02  39.549  23.458
1134.52  39.677  23.458
1135.02  39.613  23.458
1135.52  39.549  23.489
1136.02  39.613  23.458
1136.52  39.549  23.458
1137.02  39.549  23.489
1137.52  39.549  23.458
1138.02  39.549  23.458
1138.52  39.613  23.458
1139.02  39.613  23.458
1139.52  39.613  23.489
1140.02  39.549  23.458
1140.52  39.549  23.489
1141.02  39.613  23.458
1141.52  39.613  23.458
1142.02  39.613  23.489
1142.52  39.549  23.489
1143.02  39.613  23.458
1143.52  39.613  23.489
1144.02  39.613  23.458
1144.52  39.549  23.520
1145.02  39.613  23.458
1145.52  39.549  23.458
1146.02  39.613  23.458
1146.52  39.549  23.520
1147.02  39.549  23.458
1147.52  39.805  23.458
1148.02  39.549  23.458
1148.52  39.613  23.458
1149.02  39.613  23.458
1149.52  39.613  23.489
1150.02  39.613  23.427
1150.52  39.613  23.396
1151.02  39.613  23.458
1151.52  39.549  23.489
1152.02  39.613  23.458
1152.52  39.549  23.458
1153.02  39.549  23.427
1153.52  39.613  23.489
1154.02  39.613  23.458
1154.52  39.549  23.458
1155.02  39.549  23.489
1155.52  39.549  23.489
1156.02  39.549  23.489
1156.52  39.613  23.458
1157.02  39.549  23.489
1157.52  39.613  23.427
1158.02  39.549  23.458
1158.52  39.613  23.489
1159.02  39.549  23.458
1159.52  39.613  23.489
1160.02  39.613  23.427
1160.52  39.613  23.458
1161.02  39.677  23.458
1161.52  39.613  23.489
1162.02  39.549  23.458
1162.52  39.549  23.458
1163.02  39.549  23.489
1163.52  39.485  23.458
1164.02  39.613  23.458
1164.52  39.677  23.458
1165.02  39.677  23.458
1165.52  39.613  23.458
1166.02  39.613  23.458
1166.52  39.613  23.458
1167.02  39.677  23.520
1167.52  39.677  23.489
1168.02  39.677  23.489
1168.52  39.677  23.489
1169.02  39.613  23.520
1169.52  39.613  23.489
1170.02  39.613  23.458
1170.52  39.613  23.489
1171.02  39.549  23.458
1171.52  39.613  23.458
1172.02  39.613  23.458
1172.52  39.677  23.458
1173.02  39.613  23.489
1173.52  39.677  23.458
1174.02  39.677  23.458
1174.52  39.613  23.427
1175.02  39.677  23.458
1175.52  39.613  23.458
1176.02  39.613  23.489
1176.52  39.613  23.489
1177.02  39.741  23.489
1177.52  39.741  23.458
1178.02  39.613  23.489
1178.52  39.677  23.458
1179.02  39.677  23.458
1179.52  39.613  23.489
1180.02  39.677  23.458
1180.52  39.677  23.458
1181.02  39.677  23.489
1181.52  39.677  23.489
1182.02  39.613  23.489
1182.52  39.741  23.458
1183.02  39.677  23.489
1183.52  39.613  23.489
1184.02  39.805  23.489
1184.52  39.677  23.489
1185.02  39.677  23.396
1185.52  39.741  23.458
1186.02  39.677  23.489
1186.52  39.677  23.458
1187.02  39.741  23.489
1187.52  39.741  23.458
1188.02  39.677  23.489
1188.52  39.741  23.489
1189.02  39.741  23.489
1189.52  39.741  23.489
1190.02  39.677  23.489
1190.52  39.741  23.489
1191.02  39.741  23.489
1191.52  39.677  23.458
1192.02  39.741  23.489
1192.52  39.677  23.458
1193.02  39.741  23.489
1193.52  39.741  23.489
1194.02  39.741  23.489
1194.52  39.677  23.489
1195.02  39.741  23.489
1195.52  39.741  23.520
1196.02  39.741  23.520
1196.52  39.741  23.489
1197.02  39.741  23.520
1197.52  39.677  23.458
1198.02  39.741  23.520
1198.52  39.741  23.489
1199.02  39.805  23.489
1199.52  39.677  23.458
1200.02  39.741  23.489
1200.52  39.677  23.489
1201.02  39.741  23.489
1201.52  39.741  23.458
1202.02  39.805  23.489
1202.52  39.805  23.489
1203.02  39.805  23.489
1203.52  39.805  23.520
1204.02  39.741  23.489
1204.52  39.741  23.520
1205.02  39.741  23.489
1205.52  39.741  23.489
1206.02  39.741  23.489
1206.52  39.741  23.427
1207.02  39.677  23.489
1207.52  39.805  23.489
1208.02  39.805  23.489
1208.52  39.741  23.520
1209.02  39.741  23.458
1209.52  39.613  23.489
1210.02  39.741  23.489
1210.52  39.805  23.458
1211.02  39.741  23.489
1211.52  39.741  23.489
1212.02  39.741  23.489
1212.52  39.741  23.489
1213.02  39.805  23.520
1213.52  39.741  23.489
1214.02  39.805  23.489
1214.52  39.677  23.520
1215.02  39.741  23.489
1215.52  39.741  23.520
1216.02  39.741  23.489
1216.52  39.933  23.489
1217.02  39.741  23.489
1217.52  39.805  23.520
1218.02  39.805  23.458
1218.52  39.741  23.520
1219.02  39.741  23.489
1219.52  39.805  23.489
1220.02  39.869  23.520
1220.52  39.805  23.427
1221.02  39.741  23.489
1221.52  39.741  23.489
1222.02  39.805  23.489
1222.52  39.741  23.489
1223.02  39.741  23.489
1223.52  39.805  23.489
1224.03  39.805  23.520
1224.53  39.805  23.489
1225.03  39.741  23.489
1225.53  39.805  23.489
1226.03  39.805  23.489
1226.53  39.741  23.489
1227.03  39.805  23.489
1227.53  39.805  23.489
1228.03  39.805  23.489
1228.53  39.805  23.520
1229.03  39.869  23.489
1229.53  39.805  23.489
1230.03  39.805  23.489
1230.53  39.805  23.458
1231.03  39.805  23.489
1231.53  39.805  23.520
1232.03  39.741  23.520
1232.53  39.805  23.489
1233.03  39.741  23.489
1233.53  39.677  23.489
1234.03  39.805  23.520
1234.53  39.805  23.489
1235.03  39.805  23.489
1235.53  39.805  23.489
1236.03  39.805  23.458
1236.53  39.741  23.489
1237.03  39.805  23.458
1237.53  39.805  23.489
1238.03  39.805  23.458
1238.53  39.805  23.520
1239.03  39.869  23.489
1239.53  39.869  23.489
1240.03  39.805  23.520
1240.53  39.805  23.489
1241.03  39.869  23.489
1241.53  39.805  23.520
1242.03  39.869  23.520
1242.53  39.805  23.520
1243.03  39.869  23.520
1243.53  39.869  23.520
1244.03  39.869  23.520
1244.53  39.805  23.458
1245.03  39.805  23.550
1245.53  39.805  23.520
1246.03  39.869  23.520
1246.53  39.805  23.458
1247.03  39.869  23.489
1247.53  39.869  23.520
1248.03  39.869  23.520
1248.53  39.805  23.489
1249.03  39.869  23.489
1249.53  39.869  23.520
1250.03  39.997  23.520
1250.53  39.805  23.550
1251.03  39.869  23.520
1251.53  39.805  23.520
1252.03  39.869  23.489
1252.53  39.805  23.489
1253.03  39.805  23.520
1253.53  39.805  23.489
1254.03  39.869  23.489
1254.53  39.869  23.520
1255.03  39.869  23.489
1255.53  39.805  23.489
1256.03  39.869  23.520
1256.53  39.805  23.489
1257.03  39.869  23.520
1257.53  39.933  23.489
1258.03  39.805  23.489
1258.53  39.869  23.458
1259.03  39.869  23.458
1259.53  39.869  23.489
1260.03  39.869  23.550
1260.53  39.869  23.458
1261.03  39.869  23.520
1261.53  39.869  23.550
1262.03  39.869  23.550
1262.53  39.869  23.550
1263.03  39.997  23.489
1263.53  39.933  23.489
1264.03  39.869  23.489
1264.53  39.869  23.520
1265.03  39.933  23.520
1265.53  39.869  23.489
1266.03  39.869  23.489
1266.53  39.869  23.520
1267.03  39.869  23.520
1267.53  39.869  23.520
1268.03  39.869  23.489
1268.53  39.869  23.489
1269.03  39.805  23.489
1269.53  39.869  23.581
1270.03  39.869  23.520
1270.53  39.869  23.520
1271.03  39.869  23.520
1271.53  39.869  23.520
1272.03  39.933  23.489
1272.53  39.933  23.520
1273.03  39.869  23.550
1273.53  39.869  23.550
1274.03  39.933  23.520
1274.53  39.933  23.489
1275.03  39.933  23.520
1275.53  39.869  23.520
1276.03  39.933  23.489
1276.53  39.933  23.520
1277.03  39.869  23.489
1277.53  39.933  23.458
1278.03  39.869  23.489
1278.53  39.805  23.520
1279.03  39.933  23.520
1279.53  39.805  23.520
1280.03  39.869  23.458
1280.53  39.869  23.520
1281.03  39.869  23.489
1281.53  39.869  23.520
1282.03  39.997  23.458
1282.53  39.869  23.489
1283.03  39.933  23.520
1283.53  39.805  23.458
1284.03  39.869  23.489
1284.53  39.805  23.489
1285.03  39.869  23.550
1285.53  39.869  23.489
1286.03  39.805  23.520
1286.53  39.933  23.550
1287.03  39.933  23.520
1287.53  39.869  23.520
1288.03  39.933  23.520
1288.53  39.933  23.489
1289.03  39.933  23.489
1289.53  39.933  23.550
1290.03  39.933  23.489
1290.53  39.933  23.520
1291.03  39.933  23.520
1291.53  39.997  23.520
1292.03  39.933  23.520
1292.53  39.805  23.458
1293.03  39.869  23.520
1293.53  39.869  23.520
1294.03  39.933  23.489
1294.53  39.933  23.520
1295.03  39.933  23.520
1295.53  39.933  23.520
1296.03  39.997  23.520
1296.53  39.869  23.489
1297.03  39.933  23.520
1297.53  39.869  23.520
1298.03  39.933  23.520
1298.53  39.869  23.489
1299.03  39.933  23.489
1299.53  39.869  23.520
1300.03  39.933  23.489
1300.53  39.997  23.489
1301.03  39.933  23.520
1301.53  39.997  23.489
1302.03  39.933  23.520
1302.53  39.933  23.520
1303.03  39.933  23.520
1303.53  39.933  23.520
1304.03  39.741  23.550
1304.53  39.997  23.489
1305.03  39.997  23.489
1305.53  39.933  23.520
1306.03  39.933  23.550
1306.53  39.869  23.489
1307.03  39.997  23.520
1307.53  39.869  23.550
1308.03  39.997  23.581
1308.53  39.933  23.550
1309.03  39.997  23.520
1309.53  39.933  23.520
1310.03  39.933  23.550
1310.53  39.933  23.520
1311.03  39.933  23.520
1311.53  39.933  23.458
1312.03  39.997  23.520
1312.53  39.997  23.520
1313.03  39.997  23.520
1313.53  39.933  23.520
1314.03  39.933  23.489
1314.53  39.997  23.520
1315.03  39.933  23.520
1315.53  39.997  23.520
1316.03  40.158  23.520
1316.53  39.997  23.520
1317.03  39.997  23.520
1317.53  39.997  23.550
1318.03  39.933  23.489
1318.53  39.997  23.489
1319.03  39.997  23.489
1319.53  39.997  23.581
1320.03  39.933  23.550
1320.53  39.997  23.520
1321.03  39.933  23.520
1321.53  39.997  23.520
1322.03  39.997  23.520
1322.53  39.997  23.520
1323.03  39.997  23.550
1323.53  39.933  23.489
1324.03  39.997  23.550
1324.53  39.997  23.520
1325.03  39.997  23.520
1325.53  39.997  23.550
1326.03  39.997  23.520
1326.53  40.077  23.550
1327.03  39.997  23.550
1327.53  39.997  23.581
1328.03  39.997  23.550
1328.53  39.997  23.550
1329.03  40.077  23.550
1329.53  39.997  23.520
1330.03  39.997  23.520
1330.53  39.997  23.520
1331.03  39.997  23.550
1331.53  39.997  23.550
1332.03  39.997  23.550
1332.53  39.997  23.581
1333.03  39.997  23.550
1333.53  39.997  23.520
1334.03  39.997  23.489
1334.53  39.997  23.550
1335.03  39.997  23.550
1335.53  39.997  23.550
1336.03  39.997  23.550
1336.53  39.933  23.520
1337.04  40.077  23.550
1337.54  40.077  23.581
1338.04  40.077  23.520
1338.54  39.933  23.520
1339.04  40.077  23.520
1339.54  40.077  23.550
1340.04  40.077  23.520
1340.54  39.997  23.520
1341.04  40.077  23.520
1341.54  39.997  23.520
1342.04  40.077  23.550
1342.54  40.077  23.520
1343.04  40.077  23.550
1343.54  39.997  23.520
1344.04  39.997  23.520
1344.54  39.997  23.550
1345.04  40.158  23.520
1345.54  40.077  23.520
1346.04  39.997  23.550
1346.54  39.933  23.520
1347.04  40.077  23.489
1347.54  39.997  23.520
1348.04  39.997  23.520
1348.54  40.077  23.550
1349.04  39.997  23.550
1349.54  39.997  23.550
1350.04  39.997  23.489
1350.54  40.077  23.550
1351.04  39.997  23.550
1351.54  39.997  23.520
1352.04  40.077  23.550
1352.54  40.077  23.520
1353.04  40.077  23.550
1353.54  40.077  23.520
1354.04  40.077  23.550
1354.54  40.239  23.520
1355.04  40.077  23.550
1355.54  40.077  23.550
1356.04  40.077  23.520
1356.54  40.158  23.520
1357.04  40.077  23.550
1357.54  40.158  23.520
1358.04  40.077  23.520
1358.54  40.077  23.520
1359.04  39.997  23.520
1359.54  39.997  23.550
1360.04  40.158  23.520
1360.54  40.077  23.550
1361.04  40.077  23.550
1361.54  40.077  23.550
1362.04  40.077  23.520
1362.54  39.997  23.550
1363.04  40.077  23.550
1363.54  40.077  23.550
1364.04  40.158  23.550
1364.54  40.077  23.550
1365.04  40.158  23.520
1365.54  39.997  23.489
1366.04  40.077  23.520
1366.54  40.077  23.550
1367.04  40.077  23.520
1367.54  40.077  23.520
1368.04  40.077  23.550
1368.54  39.997  23.520
1369.04  40.077  23.520
1369.54  40.077  23.550
1370.04  39.997  23.550
1370.54  39.997  23.550
1371.04  40.077  23.550
1371.54  40.158  23.550
1372.04  40.158  23.550
1372.54  40.077  23.520
1373.04  40.077  23.550
1373.54  40.158  23.550
1374.04  39.997  23.550
1374.54  40.077  23.520
1375.04  40.077  23.550
1375.54  40.158  23.520
1376.04  40.077  23.550
1376.54  40.158  23.550
1377.04  40.077  23.550
1377.54  40.158  23.520
1378.04  40.158  23.550
1378.54  40.158  23.550
1379.04  40.158  23.550
1379.54  40.239  23.550
1380.04  40.158  23.550
1380.54  40.077  23.520
1381.04  40.077  23.550
1381.54  40.158  23.520
1382.04  40.158  23.550
1382.54  40.158  23.520
1383.04  40.158  23.550
1383.54  40.158  23.520
1384.04  40.158  23.550
1384.54  40.077  23.550
1385.04  40.239  23.520
1385.54  40.158  23.550
1386.04  40.077  23.550
1386.54  40.239  23.612
1387.04  40.077  23.520
1387.54  40.158  23.520
1388.04  40.077  23.581
1388.54  40.158  23.550
1389.04  40.158  23.550
1389.54  40.158  23.550
1390.04  40.158  23.550
1390.54  40.158  23.520
1391.04  40.158  23.550
1391.54  40.158  23.550
1392.04  40.158  23.520
1392.54  40.158  23.581
1393.04  40.158  23.550
1393.54  40.239  23.581
1394.04  40.158  23.520
1394.54  40.158  23.520
1395.04  40.158  23.520
1395.54  40.158  23.520
1396.04  40.077  23.550
1396.54  40.158  23.550
1397.04  40.158  23.520
1397.54  40.158  23.550
1398.04  40.077  23.520
1398.54  40.239  23.550
1399.04  40.158  23.550
1399.54  40.158  23.550
1400.04  40.158  23.550
1400.54  40.158  23.550
1401.04  40.158  23.550
1401.54  40.158  23.550
1402.04  40.158  23.550
1402.54  40.239  23.550
1403.04  40.158  23.550
1403.54  40.158  23.550
1404.04  40.158  23.550
1404.54  40.158  23.581
1405.04  40.158  23.550
1405.54  40.158  23.581
1406.04  40.077  23.581
1406.54  40.158  23.581
1407.04  40.158  23.550
1407.54  40.239  23.550
1408.04  40.158  23.550
1408.54  40.158  23.581
1409.04  40.158  23.550
1409.54  40.158  23.520
1410.04  40.158  23.581
1410.54  40.319  23.581
1411.04  40.239  23.581
1411.54  40.158  23.550
1412.04  40.158  23.550
1412.54  40.239  23.550
1413.04  40.239  23.581
1413.54  40.158  23.550
1414.04  40.158  23.550
1414.54  40.158  23.550
1415.04  40.239  23.550
1415.54  40.239  23.581
1416.04  40.239  23.520
1416.54  40.158  23.581
1417.04  40.239  23.550
1417.54  40.319  23.520
1418.04  40.158  23.581
1418.54  40.239  23.520
1419.04  40.158  23.520
1419.54  40.158  23.550
1420.04  40.239  23.550
1420.54  40.239  23.581
1421.04  40.239  23.550
1421.54  40.077  23.520
1422.04  40.239  23.550
1422.54  40.239  23.612
1423.04  40.158  23.581
1423.54  40.239  23.550
1424.04  40.077  23.581
1424.54  40.239  23.550
1425.04  40.239  23.550
1425.54  40.158  23.550
1426.04  40.239  23.581
1426.54  40.239  23.581
1427.04  40.158  23.581
1427.54  40.239  23.520
1428.04  40.239  23.520
1428.54  40.239  23.550
1429.04  40.158  23.550
1429.54  40.319  23.581
1430.04  40.319  23.581
1430.54  40.239  23.550
1431.04  40.319  23.581
1431.54  40.158  23.581
1432.04  40.239  23.550
1432.54  40.239  23.550
1433.04  40.239  23.581
1433.54  40.239  23.550
1434.04  40.158  23.550
1434.54  40.239  23.581
1435.04  40.319  23.550
1435.54  40.158  23.550
1436.04  40.158  23.550
1436.54  40.319  23.550
1437.04  40.239  23.550
1437.54  40.239  23.550
1438.04  40.239  23.550
1438.54  40.239  23.520
1439.04  40.239  23.581
1439.54  40.239  23.581
1440.04  40.239  23.520
1440.54  40.239  23.581
1441.04  40.239  23.550
1441.54  40.239  23.550
1442.04  40.239  23.550
1442.54  40.239  23.581
1443.04  40.239  23.550
1443.54  40.319  23.550
1444.04  40.239  23.550
1444.54  40.319  23.550
1445.04  40.319  23.550
1445.54  40.319  23.550
1446.04  40.239  23.612
1446.54  40.158  23.550
1447.04  40.239  23.550
1447.54  40.239  23.581
1448.04  40.239  23.581
1448.54  40.319  23.550
1449.04  40.239  23.520
1449.54  40.239  23.581
1450.04  40.239  23.550
1450.55  40.239  23.520
1451.05  40.319  23.550
1451.55  40.239  23.581
1452.05  40.239  23.581
1452.55  40.319  23.550
1453.05  40.319  23.612
1453.55  40.319  23.581
1454.05  40.319  23.550
1454.55  40.239  23.550
1455.05  40.239  23.550
1455.55  40.319  23.550
1456.05  40.239  23.520
1456.55  40.319  23.581
1457.05  40.239  23.581
1457.55  40.239  23.612
1458.05  40.319  23.612
1458.55  40.400  23.550
1459.05  40.319  23.550
1459.55  40.319  23.581
1460.05  40.400  23.550
1460.55  40.319  23.581
1461.05  40.239  23.581
1461.55  40.319  23.581
1462.05  40.319  23.550
1462.55  40.319  23.550
1463.05  40.319  23.550
1463.55  40.319  23.550
1464.05  40.319  23.581
1464.55  40.481  23.550
1465.05  40.319  23.581
1465.55  40.319  23.550
1466.05  40.319  23.520
1466.55  40.319  23.550
1467.05  40.239  23.581
1467.55  40.319  23.550
1468.05  40.319  23.550
1468.55  40.319  23.581
1469.05  40.319  23.550
1469.55  40.319  23.550
1470.05  40.319  23.550
1470.55  40.481  23.581
1471.05  40.319  23.520
1471.55  40.561  23.612
1472.05  40.319  23.581
1472.55  40.400  23.581
1473.05  40.319  23.581
1473.55  40.319  23.550
1474.05  40.077  23.612
1474.55  40.319  23.581
1475.05  40.400  23.581
1475.55  40.400  23.581
1476.05  40.319  23.581
1476.55  40.319  23.581
1477.05  40.319  23.550
1477.55  40.400  23.581
1478.05  40.319  23.550
1478.55  40.239  23.550
1479.05  40.481  23.550
1479.55  40.319  23.581
1480.05  40.319  23.581
1480.55  40.400  23.612
1481.05  40.319  23.581
1481.55  40.400  23.581
1482.05  40.400  23.581
1482.55  40.400  23.581
1483.05  40.319  23.581
1483.55  40.400  23.550
1484.05  40.319  23.581
1484.55  40.400  23.581
1485.05  40.319  23.612
1485.55  40.319  23.581
1486.05  40.319  23.520
1486.55  40.319  23.581
1487.05  40.319  23.581
1487.55  40.400  23.550
1488.05  40.400  23.612
1488.55  40.400  23.581
1489.05  40.319  23.581
1489.55  40.319  23.581
1490.05  40.400  23.581
1490.55  40.481  23.643
1491.05  40.319  23.581
1491.55  40.400  23.550
1492.05  40.319  23.581
1492.55  40.481  23.581
1493.05  40.400  23.581
1493.55  40.400  23.581
1494.05  40.481  23.581
1494.55  40.400  23.550
1495.05  40.400  23.581
1495.55  40.239  23.612
1496.05  40.481  23.581
1496.55  40.481  23.581
1497.05  40.319  23.581
1497.55  40.400  23.550
1498.05  40.481  23.581
1498.55  40.481  23.581
1499.05  40.481  23.581
1499.55  40.481  23.581
1500.05  40.400  23.581
1500.55  40.400  23.550
1501.05  40.400  23.581
1501.55  40.481  23.612
1502.05  40.400  23.581
1502.55  40.481  23.612
1503.05  40.400  23.581
1503.55  40.481  23.581
1504.05  40.400  23.581
1504.55  40.642  23.581
1505.05  40.400  23.612
1505.55  40.400  23.612
1506.05  40.400  23.643
1506.55  40.481  23.581
1507.05  40.400  23.550
1507.55  40.239  23.581
1508.05  40.319  23.612
1508.55  40.400  23.581
1509.05  40.400  23.612
1509.55  40.400  23.550
1510.05  40.400  23.581
1510.55  40.400  23.550
1511.05  40.400  23.550
1511.55  40.481  23.550
1512.05  40.400  23.581
1512.55  40.319  23.550
1513.05  40.239  23.581
1513.55  40.400  23.581
1514.05  40.481  23.581
1514.55  40.400  23.550
1515.05  40.400  23.550
1515.55  40.400  23.612
1516.05  40.400  23.520
1516.55  40.400  23.612
1517.05  40.481  23.550
1517.55  40.400  23.581
1518.05  40.481  23.550
1518.55  40.400  23.581
1519.05  40.319  23.612
1519.55  40.481  23.581
1520.05  40.400  23.581
1520.55  40.239  23.581
1521.05  40.400  23.550
1521.55  40.481  23.581
1522.05  40.481  23.581
1522.55  40.481  23.550
1523.05  40.481  23.581
1523.55  40.400  23.581
1524.05  40.481  23.581
1524.55  40.400  23.612
1525.05  40.481  23.581
1525.55  40.400  23.581
1526.05  40.319  23.581
1526.55  40.481  23.581
1527.05  40.561  23.581
1527.55  40.481  23.581
1528.05  40.239  23.581
1528.55  40.481  23.550
1529.05  40.400  23.581
1529.55  40.481  23.581
1530.05  40.481  23.550
1530.55  40.400  23.581
1531.05  40.481  23.550
1531.55  40.400  23.550
1532.05  40.481  23.612
1532.55  40.400  23.581
1533.05  40.400  23.581
1533.55  40.561  23.612
1534.05  40.400  23.581
1534.55  40.400  23.612
1535.05  40.400  23.550
1535.55  40.400  23.612
1536.05  40.481  23.581
1536.55  40.400  23.612
1537.05  40.561  23.581
1537.55  40.561  23.612
1538.05  40.561  23.581
1538.55  40.481  23.581
1539.05  40.400  23.581
1539.55  40.481  23.581
1540.05  40.561  23.581
1540.55  40.642  23.612
1541.05  40.561  23.581
1541.55  40.481  23.612
1542.05  40.481  23.581
1542.55  40.481  23.612
1543.05  40.481  23.581
1543.55  40.642  23.581
1544.05  40.481  23.612
1544.55  40.561  23.550
1545.05  40.400  23.612
1545.55  40.481  23.581
1546.05  40.481  23.581
1546.55  40.481  23.581
1547.05  40.481  23.612
1547.55  40.561  23.581
1548.05  40.481  23.581
1548.55  40.481  23.612
1549.05  40.481  23.581
1549.55  40.481  23.550
1550.05  40.481  23.581
1550.55  40.400  23.550
1551.05  40.481  23.581
1551.55  40.481  23.581
1552.05  40.481  23.550
1552.55  40.642  23.581
1553.05  40.481  23.581
1553.55  40.561  23.612
1554.05  40.481  23.643
1554.55  40.561  23.581
1555.05  40.481  23.581
1555.55  40.319  23.612
1556.05  40.561  23.581
1556.55  40.481  23.581
1557.05  40.561  23.643
1557.55  40.481  23.612
1558.05  40.561  23.581
1558.55  40.561  23.612
1559.05  40.481  23.612
1559.55  40.561  23.550
1560.05  40.481  23.612
1560.55  40.400  23.612
1561.05  40.400  23.612
1561.55  40.561  23.581
1562.05  40.481  23.643
1562.55  40.561  23.581
1563.05  40.481  23.581
1563.56  40.561  23.612
1564.06  40.481  23.581
1564.56  40.481  23.612
1565.06  40.561  23.612
1565.56  40.642  23.612
1566.06  40.642  23.581
1566.56  40.481  23.612
1567.06  40.481  23.581
1567.56  40.561  23.550
1568.06  40.481  23.612
1568.56  40.481  23.581
1569.06  40.561  23.612
1569.56  40.561  23.612
1570.06  40.561  23.581
1570.56  40.561  23.612
1571.06  40.561  23.612
1571.56  40.481  23.612
1572.06  40.642  23.643
1572.56  40.481  23.581
1573.06  40.561  23.674
1573.56  40.400  23.612
1574.06  40.561  23.612
1574.56  40.481  23.643
1575.06  40.561  23.612
1575.56  40.642  23.643
1576.06  40.561  23.612
1576.56  40.481  23.612
1577.06  40.481  23.612
1577.56  40.561  23.612
1578.06  40.561  23.612
1578.56  40.481  23.612
1579.06  40.561  23.581
1579.56  40.561  23.612
1580.06  40.561  23.643
1580.56  40.481  23.581
1581.06  40.561  23.581
1581.56  40.642  23.581
1582.06  40.561  23.643
1582.56  40.561  23.581
1583.06  40.400  23.581
1583.56  40.561  23.581
1584.06  40.481  23.612
1584.56  40.561  23.581
1585.06  40.561  23.612
1585.56  40.561  23.643
1586.06  40.561  23.612
1586.56  40.561  23.581
1587.06  40.481  23.612
1587.56  40.561  23.643
1588.06  40.481  23.612
1588.56  40.481  23.581
1589.06  40.481  23.581
1589.56  40.642  23.581
1590.06  40.561  23.612
1590.56  40.642  23.581
1591.06  40.561  23.612
1591.56  40.561  23.581
1592.06  40.561  23.612
1592.56  40.561  23.612
1593.06  40.481  23.581
1593.56  40.561  23.612
1594.06  40.561  23.612
1594.56  40.642  23.581
1595.06  40.561  23.581
1595.56  40.561  23.612
1596.06  40.642  23.612
1596.56  40.561  23.612
1597.06  40.642  23.612
1597.56  40.561  23.612
1598.06  40.642  23.612
1598.56  40.561  23.612
1599.06  40.561  23.612
1599.56  40.481  23.612
1600.06  40.561  23.581
1600.56  40.642  23.643
1601.06  40.642  23.581
1601.56  40.642  23.612
1602.06  40.481  23.612
1602.56  40.642  23.581
1603.06  40.642  23.612
1603.56  40.561  23.581
1604.06  40.481  23.612
1604.56  40.561  23.550
1605.06  40.561  23.612
1605.56  40.561  23.612
1606.06  40.884  23.612
1606.56  40.561  23.643
1607.06  40.642  23.643
1607.56  40.642  23.612
1608.06  40.642  23.581
1608.56  40.561  23.612
1609.06  40.642  23.612
1609.56  40.642  23.612
1610.06  40.561  23.674
1610.56  40.561  23.612
1611.06  40.642  23.612
1611.56  40.561  23.643
1612.06  40.561  23.581
1612.56  40.561  23.581
1613.06  40.561  23.612
1613.56  40.642  23.612
1614.06  40.642  23.612
1614.56  40.642  23.612
1615.06  40.561  23.643
1615.56  40.723  23.612
1616.06  40.642  23.612
1616.56  40.642  23.612
1617.06  40.642  23.643
1617.56  40.642  23.612
1618.06  40.642  23.612
1618.56  40.642  23.581
1619.06  40.642  23.612
1619.56  40.642  23.612
1620.06  40.561  23.612
1620.56  40.561  23.612
1621.06  40.642  23.612
1621.56  40.481  23.612
1622.06  40.723  23.612
1622.56  40.642  23.612
1623.06  40.642  23.612
1623.56  40.561  23.581
1624.06  40.642  23.674
1624.56  40.561  23.581
1625.06  40.723  23.643
1625.56  40.642  23.581
1626.06  40.561  23.612
1626.56  40.723  23.612
1627.06  40.642  23.612
1627.56  40.642  23.674
1628.06  40.723  23.612
1628.56  40.642  23.643
1629.06  40.642  23.643
1629.56  40.642  23.643
1630.06  40.723  23.643
1630.56  40.642  23.643
1631.06  40.642  23.612
1631.56  40.561  23.612
1632.06  40.642  23.612
1632.56  40.642  23.735
1633.06  40.642  23.612
1633.56  40.803  23.643
1634.06  40.642  23.612
1634.56  40.642  23.643
1635.06  40.561  23.643
1635.56  40.561  23.612
1636.06  40.642  23.581
1636.56  40.561  23.612
1637.06  40.723  23.612
1637.56  40.642  23.643
1638.06  40.642  23.612
1638.56  40.561  23.612
1639.06  40.723  23.643
1639.56  40.642  23.612
1640.06  40.642  23.612
1640.56  40.642  23.643
1641.06  40.561  23.612
1641.56  40.803  23.612
1642.06  40.642  23.643
1642.56  40.642  23.643
1643.06  40.642  23.643
1643.56  40.642  23.643
1644.06  40.723  23.643
1644.56  40.723  23.612
1645.06  40.723  23.612
1645.56  40.723  23.612
1646.06  40.803  23.612
1646.56  40.723  23.612
1647.06  40.642  23.612
1647.56  40.642  23.612
1648.06  40.723  23.612
1648.56  40.723  23.643
1649.06  40.642  23.612
1649.56  40.642  23.612
1650.06  40.642  23.643
1650.56  40.642  23.643
1651.06  40.642  23.643
1651.56  40.723  23.643
1652.06  40.723  23.581
1652.56  40.723  23.643
1653.06  40.723  23.643
1653.56  40.642  23.612
1654.06  40.723  23.612
1654.56  40.723  23.612
1655.06  40.723  23.612
1655.56  40.803  23.643
1656.06  40.723  23.643
1656.56  40.723  23.612
1657.06  40.723  23.612
1657.56  40.642  23.612
1658.06  40.723  23.612
1658.56  40.561  23.612
1659.06  40.723  23.643
1659.56  40.723  23.643
1660.06  40.723  23.643
1660.56  40.884  23.612
1661.06  40.723  23.612
1661.56  40.965  23.643
1662.06  40.803  23.612
1662.56  40.723  23.643
1663.06  40.561  23.612
1663.56  40.642  23.643
1664.06  40.884  23.612
1664.56  40.723  23.643
1665.06  40.723  23.643
1665.56  40.803  23.612
1666.06  40.803  23.612
1666.56  40.723  23.643
1667.06  40.642  23.612
1667.56  40.723  23.643
1668.06  40.723  23.612
1668.56  40.723  23.643
1669.06  40.723  23.643
1669.56  40.723  23.643
1670.06  40.723  23.643
1670.56  40.803  23.643
1671.06  40.723  23.612
1671.56  40.723  23.612
1672.06  40.803  23.612
1672.56  40.803  23.643
1673.06  40.723  23.643
1673.56  40.803  23.612
1674.06  40.723  23.612
1674.56  40.642  23.612
1675.06  40.723  23.643
1675.56  40.723  23.643
1676.06  40.803  23.612
1676.57  40.723  23.612
1677.07  40.723  23.612
1677.57  40.884  23.643
1678.07  40.803  23.643
1678.57  40.803  23.674
1679.07  40.723  23.643
1679.57  40.723  23.612
1680.07  40.803  23.643
1680.57  40.723  23.643
1681.07  40.723  23.643
1681.57  40.723  23.674
1682.07  40.723  23.643
1682.57  40.803  23.643
1683.07  40.723  23.612
1683.57  40.803  23.643
1684.07  40.723  23.612
1684.57  40.723  23.612
1685.07  40.803  23.643
1685.57  40.884  23.643
1686.07  40.803  23.643
1686.57  40.803  23.643
1687.07  40.803  23.612
1687.57  40.884  23.674
1688.07  40.803  23.674
1688.57  40.723  23.674
1689.07  40.723  23.643
1689.57  40.803  23.643
1690.07  40.803  23.674
1690.57  40.723  23.674
1691.07  40.723  23.643
1691.57  40.803  23.612
1692.07  40.642  23.643
1692.57  40.803  23.643
1693.07  40.723  23.612
1693.57  40.723  23.643
1694.07  40.803  23.674
1694.57  40.723  23.612
1695.07  40.803  23.643
1695.57  40.803  23.612
1696.07  40.803  23.643
1696.57  40.803  23.643
1697.07  40.884  23.643
1697.57  40.723  23.581
1698.07  40.642  23.643
1698.57  40.803  23.612
1699.07  40.723  23.643
1699.57  40.803  23.674
1700.07  40.803  23.612
1700.57  40.803  23.643
1701.07  40.642  23.643
1701.57  40.803  23.612
1702.07  40.884  23.643
1702.57  40.884  23.643
1703.07  40.723  23.674
1703.57  40.723  23.612
1704.07  40.723  23.643
1704.57  40.803  23.643
1705.07  40.803  23.612
1705.57  40.803  23.612
1706.07  40.884  23.643
1706.57  40.723  23.643
1707.07  40.803  23.643
1707.57  40.803  23.612
1708.07  40.803  23.705
1708.57  40.803  23.643
1709.07  40.723  23.643
1709.57  40.803  23.643
1710.07  40.723  23.612
1710.57  40.723  23.643
1711.07  40.803  23.643
1711.57  40.723  23.612
1712.07  40.803  23.674
1712.57  40.803  23.643
1713.07  40.803  23.643
1713.57  40.803  23.643
1714.07  40.884  23.643
1714.57  40.803  23.643
1715.07  40.803  23.612
1715.57  40.803  23.643
1716.07  40.803  23.612
1716.57  40.803  23.643
1717.07  40.884  23.643
1717.57  40.803  23.643
1718.07  40.723  23.643
1718.57  40.803  23.643
1719.07  40.723  23.643
1719.57  40.803  23.643
1720.07  40.884  23.612
1720.57  40.723  23.643
1721.07  40.803  23.612
1721.57  40.803  23.674
1722.07  40.803  23.643
1722.57  40.884  23.643
1723.07  40.884  23.612
1723.57  40.803  23.643
1724.07  40.803  23.612
1724.57  40.803  23.643
1725.07  40.803  23.643
1725.57  40.803  23.643
1726.07  40.803  23.612
1726.57  40.723  23.643
1727.07  40.803  23.643
1727.57  40.803  23.643
1728.07  40.803  23.643
1728.57  40.884  23.643
1729.07  40.965  23.643
1729.57  40.803  23.643
1730.07  40.803  23.643
1730.57  40.723  23.643
1731.07  40.884  23.643
1731.57  41.045  23.643
1732.07  40.723  23.643
1732.57  40.803  23.612
1733.07  40.803  23.612
1733.57  40.803  23.643
1734.07  40.884  23.643
1734.57  40.803  23.643
1735.07  40.803  23.643
1735.57  40.803  23.643
1736.07  40.884  23.643
1736.57  40.803  23.643
1737.07  40.803  23.643
1737.57  40.965  23.674
1738.07  40.884  23.643
1738.57  40.884  23.674
1739.07  40.803  23.643
1739.57  41.126  23.674
1740.07  40.884  23.643
1740.57  40.803  23.643
1741.07  40.884  23.674
1741.57  40.965  23.674
1742.07  40.884  23.643
1742.57  40.884  23.674
1743.07  40.884  23.674
1743.57  40.803  23.674
1744.07  40.884  23.674
1744.57  40.884  23.674
1745.07  40.803  23.674
1745.57  40.884  23.643
1746.07  40.803  23.643
1746.57  40.884  23.612
1747.07  40.965  23.705
1747.57  40.803  23.674
1748.07  40.884  23.705
1748.57  40.884  23.674
1749.07  40.884  23.643
1749.57  40.803  23.705
1750.07  40.884  23.643
1750.57  40.965  23.643
1751.07  40.884  23.643
1751.57  40.884  23.674
1752.07  40.884  23.643
1752.57  40.803  23.674
1753.07  40.884  23.643
1753.57  40.884  23.643
1754.07  40.884  23.674
1754.57  40.884  23.643
1755.07  40.884  23.674
1755.57  40.884  23.643
1756.07  40.965  23.643
1756.57  40.884  23.612
1757.07  40.884  23.643
1757.57  41.045  23.674
1758.07  40.884  23.674
1758.57  40.803  23.643
1759.07  40.884  23.674
1759.57  40.884  23.674
1760.07  40.965  23.674
1760.57  40.884  23.643
1761.07  40.884  23.612
1761.57  40.884  23.674
1762.07  40.803  23.643
1762.57  40.884  23.674
1763.07  40.884  23.643
1763.57  40.884  23.643
1764.07  40.884  23.674
1764.57  40.884  23.674
1765.07  40.884  23.705
1765.57  40.803  23.674
1766.07  40.884  23.643
1766.57  40.884  23.674
1767.07  40.884  23.643
1767.57  40.965  23.674
1768.07  41.045  23.643
1768.57  40.884  23.674
1769.07  40.965  23.643
1769.57  40.884  23.643
1770.07  40.965  23.643
1770.57  40.884  23.674
1771.07  40.884  23.612
1771.57  40.884  23.643
1772.07  40.884  23.643
1772.57  40.884  23.674
1773.07  40.884  23.674
1773.57  40.884  23.674
1774.07  40.884  23.674
1774.57  40.803  23.643
1775.07  40.884  23.674
1775.57  40.884  23.674
1776.07  40.884  23.674
1776.57  40.884  23.674
1777.07  40.884  23.643
1777.57  40.884  23.674
1778.07  40.965  23.643
1778.57  40.965  23.643
1779.07  40.884  23.674
1779.57  40.884  23.674
1780.07  40.884  23.705
1780.57  40.884  23.674
1781.07  40.884  23.643
1781.57  41.045  23.674
1782.07  40.965  23.674
1782.57  40.965  23.643
1783.07  40.965  23.612
1783.57  40.884  23.643
1784.07  40.965  23.674
1784.57  40.884  23.643
1785.07  40.803  23.705
1785.57  40.965  23.674
1786.07  40.884  23.705
1786.57  40.965  23.643
1787.07  40.884  23.643
1787.57  40.965  23.674
1788.07  40.965  23.674
1788.57  40.965  23.643
1789.07  40.884  23.674
1789.57  40.965  23.705
1790.08  40.884  23.643
1790.58  41.045  23.705
1791.08  40.884  23.643
1791.58  40.965  23.705
1792.08  40.965  23.674
1792.58  40.965  23.643
1793.08  40.965  23.705
1793.58  40.965  23.705
1794.08  40.965  23.643
1794.58  40.965  23.643
1795.08  40.884  23.674
1795.58  40.965  23.643
1796.08  40.884  23.674
1796.58  40.965  23.643
1797.08  40.965  23.674
1797.58  40.884  23.674
1798.08  40.965  23.643
1798.58  40.884  23.674
1799.08  40.965  23.643
1799.58  40.965  23.674
1800.08  40.884  23.643
1800.58  40.965  23.674
1801.08  40.965  23.674
1801.58  40.965  23.643
1802.08  40.884  23.643
1802.58  40.884  23.674
1803.08  40.884  23.643
1803.58  40.884  23.674
1804.08  40.965  23.674
1804.58  40.965  23.705
1805.08  40.965  23.643
1805.58  40.965  23.674
1806.08  41.045  23.643
1806.58  40.884  23.674
1807.08  40.884  23.674
1807.58  40.965  23.705
1808.08  40.884  23.674
1808.58  40.965  23.674
1809.08  40.965  23.674
1809.58  41.045  23.674
1810.08  41.045  23.705
1810.58  40.965  23.643
1811.08  41.045  23.674
1811.58  41.045  23.674
1812.08  40.965  23.674
1812.58  40.884  23.705
1813.08  41.126  23.705
1813.58  40.965  23.674
1814.08  41.045  23.643
1814.58  40.965  23.674
1815.08  40.965  23.643
1815.58  40.884  23.674
1816.08  41.045  23.674
1816.58  40.884  23.674
1817.08  41.045  23.643
1817.58  41.045  23.674
1818.08  40.965  23.735
1818.58  40.884  23.674
1819.08  41.045  23.674
1819.58  40.965  23.643
1820.08  40.965  23.705
1820.58  40.965  23.705
1821.08  40.965  23.705
1821.58  40.965  23.705
1822.08  40.965  23.674
1822.58  40.965  23.674
1823.08  41.045  23.674
1823.58  40.965  23.643
1824.08  40.965  23.674
1824.58  40.884  23.674
1825.08  41.045  23.674
1825.58  40.965  23.674
1826.08  40.965  23.674
1826.58  40.965  23.705
1827.08  41.045  23.674
1827.58  41.045  23.705
1828.08  41.045  23.674
1828.58  40.965  23.674
1829.08  40.965  23.674
1829.58  41.045  23.674
1830.08  41.045  23.674
1830.58  41.126  23.705
1831.08  41.045  23.674
1831.58  41.045  23.705
1832.08  41.045  23.705
1832.58  41.045  23.674
1833.08  40.884  23.643
1833.58  40.965  23.674
1834.08  41.045  23.705
1834.58  41.045  23.735
1835.08  40.965  23.674
1835.58  40.965  23.643
1836.08  40.965  23.612
1836.58  41.045  23.735
1837.08  40.965  23.674
1837.58  41.045  23.705
1838.08  41.045  23.674
1838.58  40.965  23.705
1839.08  41.045  23.674
1839.58  40.965  23.674
1840.08  40.965  23.674
1840.58  40.965  23.674
1841.08  41.126  23.674
1841.58  41.045  23.674
1842.08  40.965  23.674
1842.58  40.965  23.674
1843.08  41.045  23.705
1843.58  41.045  23.643
1844.08  40.965  23.705
1844.58  41.045  23.674
1845.08  41.045  23.674
1845.58  41.045  23.705
1846.08  41.045  23.705
1846.58  41.045  23.674
1847.08  41.126  23.674
1847.58  41.045  23.705
1848.08  40.965  23.674
1848.58  40.965  23.643
1849.08  41.045  23.705
1849.58  41.045  23.705
1850.08  41.045  23.674
1850.58  41.045  23.674
1851.08  40.965  23.674
1851.58  41.126  23.674
1852.08  41.045  23.674
1852.58  41.126  23.705
1853.08  41.045  23.705
1853.58  41.045  23.643
1854.08  40.965  23.674
1854.58  41.045  23.705
1855.08  41.045  23.705
1855.58  41.045  23.705
1856.08  41.045  23.674
1856.58  41.045  23.705
1857.08  40.965  23.705
1857.58  41.045  23.674
1858.08  41.045  23.705
1858.58  41.206  23.674
1859.08  40.965  23.674
1859.58  41.126  23.674
1860.08  41.045  23.643
1860.58  41.045  23.705
1861.08  41.045  23.674
1861.58  41.126  23.705
1862.08  41.045  23.705
1862.58  41.045  23.766
1863.08  40.965  23.674
1863.58  41.045  23.674
1864.08  41.126  23.674
1864.58  41.045  23.705
1865.08  41.045  23.674
1865.58  41.045  23.643
1866.08  41.126  23.674
1866.58  41.045  23.705
1867.08  41.126  23.674
1867.58  41.045  23.674
1868.08  41.045  23.705
1868.58  41.045  23.705
1869.08  41.126  23.674
1869.58  41.126  23.674
1870.08  41.045  23.705
1870.58  41.045  23.705
1871.08  41.126  23.674
1871.58  41.126  23.643
1872.08  41.126  23.674
1872.58  40.965  23.674
1873.08  41.045  23.705
1873.58  41.206  23.735
1874.08  41.045  23.705
1874.58  41.045  23.705
1875.08  40.965  23.705
1875.58  41.045  23.705
1876.08  41.045  23.735
1876.58  41.126  23.735
1877.08  41.126  23.705
1877.58  41.126  23.705
1878.08  41.126  23.705
1878.58  41.045  23.705
1879.08  41.126  23.705
1879.58  41.126  23.705
1880.08  41.126  23.705
1880.58  41.045  23.705
1881.08  41.045  23.674
1881.58  41.045  23.674
1882.08  41.206  23.674
1882.58  41.126  23.705
1883.08  40.965  23.674
1883.58  41.126  23.705
1884.08  41.126  23.674
1884.58  41.126  23.735
1885.08  41.126  23.705
1885.58  41.126  23.674
1886.08  41.126  23.705
1886.58  41.126  23.705
1887.08  41.126  23.674
1887.58  41.126  23.705
1888.08  41.045  23.705
1888.58  41.126  23.705
1889.08  41.045  23.705
1889.58  41.126  23.674
1890.08  40.965  23.705
1890.58  41.045  23.735
1891.08  41.126  23.643
1891.58  41.045  23.674
1892.08  41.045  23.705
1892.58  41.126  23.705
1893.08  41.045  23.735
1893.58  41.126  23.705
1894.08  41.126  23.705
1894.58  41.126  23.674
1895.08  41.126  23.674
1895.58  41.045  23.674
1896.08  41.045  23.705
1896.58  41.045  23.643
1897.08  41.126  23.674
1897.58  41.126  23.674
1898.08  41.126  23.705
1898.58  41.126  23.705
1899.08  41.206  23.705
1899.58  41.045  23.705
1900.08  41.126  23.735
1900.58  41.045  23.705
1901.08  41.045  23.766
1901.58  41.126  23.705
1902.08  41.126  23.705
1902.58  41.126  23.674
1903.09  41.126  23.674
1903.59  41.126  23.674
1904.09  41.126  23.705
1904.59  41.045  23.705
1905.09  41.206  23.705
1905.59  41.045  23.705
1906.09  40.965  23.705
1906.59  41.206  23.705
1907.09  41.126  23.705
1907.59  41.126  23.705
1908.09  41.126  23.705
1908.59  41.126  23.705
1909.09  41.126  23.705
1909.59  41.126  23.735
1910.09  41.126  23.705
1910.59  41.045  23.705
1911.09  41.045  23.735
1911.59  41.045  23.674
1912.09  41.206  23.674
1912.59  41.126  23.705
1913.09  41.045  23.705
1913.59  41.206  23.643
1914.09  41.126  23.705
1914.59  41.126  23.705
1915.09  41.206  23.705
1915.59  41.206  23.705
1916.09  41.206  23.674
1916.59  41.126  23.674
1917.09  41.126  23.705
1917.59  41.126  23.705
1918.09  41.126  23.705
1918.59  41.126  23.612
1919.09  41.206  23.705
1919.59  41.206  23.705
1920.09  41.126  23.705
1920.59  41.287  23.705
1921.09  41.126  23.705
1921.59  41.126  23.705
1922.09  41.206  23.705
1922.59  41.206  23.735
1923.09  41.126  23.735
1923.59  41.126  23.705
1924.09  41.045  23.735
1924.59  41.206  23.705
1925.09  41.126  23.735
1925.59  41.287  23.735
1926.09  41.045  23.705
1926.59  41.206  23.797
1927.09  41.287  23.705
1927.59  41.126  23.735
1928.09  41.206  23.705
1928.59  41.206  23.705
1929.09  41.126  23.705
1929.59  41.206  23.705
1930.09  41.126  23.735
1930.59  41.206  23.705
1931.09  41.126  23.705
1931.59  41.126  23.705
1932.09  41.126  23.705
1932.59  41.126  23.735
1933.09  41.126  23.705
1933.59  41.126  23.705
1934.09  41.045  23.705
1934.59  41.045  23.674
1935.09  41.126  23.705
1935.59  41.126  23.705
1936.09  41.126  23.674
1936.59  41.126  23.705
1937.09  41.126  23.705
1937.59  41.126  23.705
1938.09  41.045  23.705
1938.59  41.206  23.705
1939.09  41.206  23.705
1939.59  41.045  23.705
1940.09  41.206  23.705
1940.59  41.206  23.674
1941.09  41.126  23.735
1941.59  41.206  23.705
1942.09  41.206  23.705
1942.59  41.206  23.705
1943.09  41.045  23.705
1943.59  41.206  23.735
1944.09  41.206  23.735
1944.59  41.206  23.705
1945.09  41.287  23.674
1945.59  41.206  23.705
1946.09  41.206  23.735
1946.59  41.206  23.705
1947.09  41.206  23.705
1947.59  41.206  23.705
1948.09  41.126  23.705
1948.59  41.287  23.735
1949.09  41.206  23.735
1949.59  41.126  23.735
1950.09  41.126  23.735
1950.59  41.206  23.735
1951.09  41.206  23.735
1951.59  41.206  23.705
1952.09  41.126  23.705
1952.59  41.206  23.705
1953.09  41.287  23.705
1953.59  41.206  23.735
1954.09  41.126  23.705
1954.59  41.126  23.674
1955.09  41.126  23.674
1955.59  41.206  23.735
1956.09  41.206  23.705
1956.59  41.206  23.735
1957.09  41.206  23.705
1957.59  41.126  23.705
1958.09  41.206  23.705
1958.59  41.206  23.705
1959.09  41.206  23.705
1959.59  41.126  23.735
1960.09  41.206  23.705
1960.59  41.206  23.705
1961.09  41.126  23.735
1961.59  41.126  23.705
1962.09  41.206  23.735
1962.59  41.126  23.705
1963.09  41.206  23.735
1963.59  41.206  23.705
1964.09  41.126  23.735
1964.59  41.206  23.735
1965.09  41.206  23.766
1965.59  41.206  23.705
1966.09  41.206  23.735
1966.59  41.287  23.705
1967.09  41.287  23.705
1967.59  41.287  23.705
1968.09  41.206  23.705
1968.59  41.206  23.705
1969.09  41.206  23.705
1969.59  41.206  23.674
1970.09  41.206  23.735
1970.59  41.206  23.705
1971.09  41.206  23.735
1971.59  41.287  23.735
1972.09  41.206  23.735
1972.59  41.206  23.705
1973.09  41.206  23.735
1973.59  41.206  23.705
1974.09  41.206  23.705
1974.59  41.287  23.705
1975.09  41.206  23.735
1975.59  41.206  23.735
1976.09  41.206  23.705
1976.59  41.206  23.735
1977.09  41.206  23.735
1977.59  41.287  23.735
1978.09  41.206  23.766
1978.59  41.287  23.705
1979.09  41.206  23.735
1979.59  41.206  23.705
1980.09  41.126  23.766
1980.59  41.206  23.674
1981.09  41.287  23.705
1981.59  41.287  23.735
1982.09  41.206  23.705
1982.59  41.126  23.735
1983.09  41.206  23.735
1983.59  41.287  23.735
1984.09  41.287  23.735
1984.59  41.206  23.705
1985.09  41.287  23.705
1985.59  41.206  23.735
1986.09  41.206  23.735
1986.59  41.287  23.705
1987.09  41.206  23.735
1987.59  41.287  23.735
1988.09  41.287  23.735
1988.59  41.206  23.735
1989.09  41.287  23.735
1989.59  41.287  23.766
1990.09  41.287  23.735
1990.59  41.206  23.735
1991.09  41.287  23.735
1991.59  41.206  23.735
1992.09  41.287  23.735
1992.59  41.206  23.735
1993.09  41.287  23.766
1993.59  41.287  23.766
1994.09  41.287  23.735
1994.59  41.206  23.766
1995.09  41.287  23.735
1995.59  41.287  23.766
1996.09  41.206  23.766
1996.59  41.206  23.705
1997.09  41.206  23.705
1997.59  41.287  23.766
1998.09  41.287  23.797
1998.59  41.287  23.674
1999.09  41.287  23.766
1999.59  41.287  23.735
2000.09  41.206  23.735
2000.59  41.287  23.766
2001.09  41.287  23.735
2001.59  41.287  23.735
2002.09  41.287  23.735
2002.59  41.448  23.705
2003.09  41.287  23.735
2003.59  41.287  23.766
2004.09  41.287  23.766
2004.59  41.368  23.735
2005.09  41.287  23.735
2005.59  41.287  23.735
2006.09  41.368  23.766
2006.59  41.287  23.735
2007.09  41.206  23.735
2007.59  41.287  23.735
2008.09  41.287  23.705
2008.59  41.206  23.735
2009.09  41.206  23.735
2009.59  41.368  23.705
2010.09  41.287  23.735
2010.59  41.287  23.735
2011.09  41.287  23.735
2011.59  41.368  23.735
2012.09  41.368  23.735
2012.59  41.287  23.735
2013.09  41.368  23.735
2013.59  41.287  23.735
2014.09  41.287  23.705
2014.59  41.206  23.735
2015.09  41.287  23.705
2015.59  41.287  23.766
2016.10  41.206  23.766
2016.60  41.206  23.735
2017.10  41.368  23.705
2017.60  41.368  23.735
2018.10  41.206  23.705
2018.60  41.529  23.705
2019.10  41.448  23.735
2019.60  41.206  23.766
2020.10  41.287  23.797
2020.60  41.206  23.735
2021.10  41.287  23.735
2021.60  41.287  23.735
2022.10  41.368  23.735
2022.60  41.368  23.735
2023.10  41.287  23.766
2023.60  41.368  23.735
2024.10  41.287  23.735
2024.60  41.287  23.735
2025.10  41.368  23.735
2025.60  41.368  23.735
2026.10  41.368  23.735
2026.60  41.287  23.735
2027.10  41.287  23.735
2027.60  41.368  23.735
2028.10  41.206  23.766
2028.60  41.287  23.735
2029.10  41.206  23.766
2029.60  41.206  23.735
2030.10  41.368  23.766
2030.60  41.368  23.735
2031.10  41.287  23.735
2031.60  41.287  23.735
2032.10  41.368  23.735
2032.60  41.206  23.705
2033.10  41.368  23.705
2033.60  41.287  23.735
2034.10  41.287  23.735
2034.60  41.287  23.705
2035.10  41.368  23.766
2035.60  41.368  23.735
2036.10  41.368  23.735
2036.60  41.368  23.766
2037.10  41.287  23.735
2037.60  41.287  23.705
2038.10  41.206  23.705
2038.60  41.368  23.766
2039.10  41.287  23.705
2039.60  41.206  23.705
2040.10  41.287  23.735
2040.60  41.287  23.735
2041.10  41.448  23.735
2041.60  41.287  23.766
2042.10  41.368  23.766
2042.60  41.368  23.735
2043.10  41.448  23.735
2043.60  41.368  23.735
2044.10  41.287  23.735
2044.60  41.287  23.766
2045.10  41.368  23.705
2045.60  41.287  23.735
2046.10  41.287  23.735
2046.60  41.368  23.766
2047.10  41.368  23.735
2047.60  41.287  23.735
2048.10  40.884  23.735
2048.60  41.287  23.735
2049.10  41.206  23.766
2049.60  41.287  23.766
2050.10  41.287  23.735
2050.60  41.529  23.705
2051.10  41.368  23.766
2051.60  41.368  23.735
2052.10  41.287  23.735
2052.60  41.368  23.735
2053.10  41.368  23.735
2053.60  41.287  23.766
2054.10  41.287  23.705
2054.60  41.368  23.766
2055.10  41.368  23.735
2055.60  41.610  23.735
2056.10  41.448  23.705
2056.60  41.368  23.766
2057.10  41.287  23.735
2057.60  41.368  23.766
2058.10  41.368  23.766
2058.60  41.368  23.766
2059.10  41.368  23.735
2059.60  41.368  23.766
2060.10  41.287  23.766
2060.60  41.287  23.705
2061.10  41.368  23.766
2061.60  41.287  23.735
2062.10  41.368  23.705
2062.60  41.287  23.797
2063.10  41.368  23.735
2063.60  41.368  23.735
2064.10  41.287  23.766
2064.60  41.287  23.766
2065.10  41.368  23.766
2065.60  41.448  23.735
2066.10  41.368  23.766
2066.60  41.287  23.766
2067.10  41.448  23.735
2067.60  41.287  23.797
2068.10  41.368  23.735
2068.60  41.448  23.828
2069.10  41.287  23.735
2069.60  41.368  23.766
2070.10  41.368  23.766
2070.60  41.448  23.735
2071.10  41.368  23.766
2071.60  41.529  23.766
2072.10  41.368  23.735
2072.60  41.448  23.735
2073.10  41.368  23.766
2073.60  41.368  23.766
2074.10  41.368  23.735
2074.60  41.368  23.735
2075.10  41.448  23.766
2075.60  41.368  23.766
2076.10  41.287  23.735
2076.60  41.368  23.735
2077.10  41.529  23.766
2077.60  41.368  23.766
2078.10  41.448  23.735
2078.60  41.448  23.735
2079.10  41.368  23.766
2079.60  41.368  23.797
2080.10  41.368  23.735
2080.60  41.368  23.735
2081.10  41.368  23.766
2081.60  41.368  23.735
2082.10  41.368  23.766
2082.60  41.448  23.735
2083.10  41.287  23.766
2083.60  41.368  23.705
2084.10  41.448  23.766
2084.60  41.368  23.735
2085.10  41.368  23.735
2085.60  41.368  23.766
2086.10  41.368  23.797
2086.60  41.368  23.766
2087.10  41.368  23.797
2087.60  41.287  23.735
2088.10  41.368  23.766
2088.60  41.448  23.766
2089.10  41.368  23.766
2089.60  41.368  23.766
2090.10  41.368  23.766
2090.60  41.368  23.735
2091.10  41.448  23.766
2091.60  41.368  23.797
2092.10  41.368  23.735
2092.60  41.368  23.766
2093.10  41.368  23.766
2093.60  41.448  23.766
2094.10  41.368  23.766
2094.60  41.368  23.766
2095.10  41.529  23.797
2095.60  41.287  23.766
2096.10  41.368  23.766
2096.60  41.448  23.797
2097.10  41.368  23.735
2097.60  41.529  23.735
2098.10  41.368  23.766
2098.60  41.368  23.766
2099.10  41.368  23.735
2099.60  41.368  23.735
2100.10  41.368  23.735
2100.60  41.287  23.828
2101.10  41.368  23.705
2101.60  41.448  23.797
2102.10  41.368  23.797
2102.60  41.368  23.705
2103.10  41.448  23.766
2103.60  41.448  23.766
2104.10  41.368  23.828
2104.60  41.368  23.766
2105.10  41.368  23.766
2105.60  41.368  23.766
2106.10  41.448  23.766
2106.60  41.368  23.766
2107.10  41.448  23.766
2107.60  41.448  23.797
2108.10  41.529  23.797
2108.60  41.368  23.797
2109.10  41.368  23.766
2109.60  41.529  23.766
2110.10  41.448  23.766
2110.60  41.368  23.828
2111.10  41.448  23.797
2111.60  41.529  23.766
2112.10  41.368  23.766
2112.60  41.448  23.766
2113.10  41.368  23.766
2113.60  41.448  23.735
2114.10  41.448  23.766
2114.60  41.448  23.828
2115.10  41.448  23.735
2115.60  41.368  23.797
2116.10  41.448  23.766
2116.60  41.529  23.735
2117.10  41.368  23.735
2117.60  41.448  23.735
2118.10  41.448  23.797
2118.60  41.368  23.766
2119.10  41.448  23.797
2119.60  41.448  23.766
2120.10  41.448  23.797
2120.60  41.529  23.797
2121.10  41.448  23.705
2121.60  41.448  23.766
2122.10  41.368  23.797
2122.60  41.448  23.735
2123.10  41.448  23.797
2123.60  41.448  23.766
2124.10  41.448  23.766
2124.60  41.448  23.766
2125.10  41.448  23.766
2125.60  41.448  23.766
2126.10  41.368  23.735
2126.60  41.529  23.766
2127.10  41.448  23.766
2127.60  41.287  23.766
2128.10  41.368  23.766
2128.60  41.448  23.735
2129.11  41.368  23.766
2129.61  41.448  23.766
2130.11  41.368  23.735
2130.61  41.448  23.766
2131.11  41.448  23.735
2131.61  41.529  23.766
2132.11  41.368  23.766
2132.61  41.529  23.735
2133.11  41.448  23.766
2133.61  41.529  23.766
2134.11  41.529  23.735
2134.61  41.448  23.766
2135.11  41.448  23.766
2135.61  41.368  23.766
2136.11  41.448  23.797
2136.61  41.448  23.766
2137.11  41.448  23.766
2137.61  41.368  23.735
2138.11  41.368  23.766
2138.61  41.448  23.735
2139.11  41.529  23.766
2139.61  41.529  23.766
2140.11  41.448  23.766
2140.61  41.448  23.797
2141.11  41.448  23.766
2141.61  41.529  23.797
2142.11  41.448  23.766
2142.61  41.448  23.735
2143.11  41.368  23.797
2143.61  41.448  23.735
2144.11  41.448  23.766
2144.61  41.529  23.766
2145.11  41.448  23.766
2145.61  41.448  23.766
2146.11  41.448  23.766
2146.61  41.448  23.766
2147.11  41.448  23.859
2147.61  41.448  23.766
2148.11  41.529  23.766
2148.61  41.529  23.828
2149.11  41.448  23.766
2149.61  41.529  23.766
2150.11  41.448  23.766
2150.61  41.448  23.797
2151.11  41.529  23.766
2151.61  41.448  23.766
2152.11  41.368  23.797
2152.61  41.448  23.766
2153.11  41.448  23.766
2153.61  41.529  23.797
2154.11  41.529  23.797
2154.61  41.448  23.766
2155.11  41.448  23.797
2155.61  41.448  23.766
2156.11  41.529  23.735
2156.61  41.448  23.766
2157.11  41.448  23.797
2157.61  41.448  23.735
2158.11  41.448  23.797
2158.61  41.448  23.797
2159.11  41.448  23.797
2159.61  41.448  23.766
2160.11  41.448  23.766
2160.61  41.448  23.828
2161.11  41.448  23.766
2161.61  41.448  23.797
2162.11  41.529  23.766
2162.61  41.529  23.766
2163.11  41.529  23.766
2163.61  41.448  23.766
2164.11  41.448  23.797
2164.61  41.448  23.828
2165.11  41.448  23.797
2165.61  41.529  23.797
2166.11  41.529  23.766
2166.61  41.448  23.766
2167.11  41.448  23.766
2167.61  41.287  23.797
2168.11  41.448  23.766
2168.61  41.448  23.766
2169.11  41.448  23.797
2169.61  41.529  23.797
2170.11  41.529  23.766
2170.61  41.448  23.766
2171.11  41.610  23.797
2171.61  41.529  23.797
2172.11  41.529  23.766
2172.61  41.448  23.766
2173.11  41.529  23.797
2173.61  41.529  23.766
2174.11  41.529  23.797
2174.61  41.529  23.797
2175.11  41.529  23.766
2175.61  41.529  23.797
2176.11  41.448  23.797
2176.61  41.448  23.766
2177.11  41.529  23.797
2177.61  41.448  23.766
2178.11  41.529  23.766
2178.61  41.448  23.766
2179.11  41.448  23.766
2179.61  41.368  23.735
2180.11  41.529  23.735
2180.61  41.448  23.735
2181.11  41.529  23.797
2181.61  41.448  23.797
2182.11  41.529  23.766
2182.61  41.448  23.766
2183.11  41.448  23.797
2183.61  41.529  23.766
2184.11  41.529  23.797
2184.61  41.529  23.766
2185.11  41.448  23.766
2185.61  41.529  23.797
2186.11  41.529  23.797
2186.61  41.529  23.766
2187.11  41.529  23.797
2187.61  41.529  23.797
2188.11  41.529  23.766
2188.61  41.529  23.797
2189.11  41.448  23.797
2189.61  41.448  23.797
2190.11  41.529  23.797
2190.61  41.529  23.766
2191.11  41.529  23.797
2191.61  41.529  23.797
2192.11  41.448  23.797
2192.61  41.529  23.797
2193.11  41.529  23.797
2193.61  41.529  23.797
2194.11  41.448  23.797
2194.61  41.529  23.797
2195.11  41.529  23.735
2195.61  41.448  23.735
2196.11  41.529  23.766
2196.61  41.448  23.797
2197.11  41.529  23.797
2197.61  41.529  23.797
2198.11  41.529  23.797
2198.61  41.448  23.797
2199.11  41.529  23.797
2199.61  41.529  23.797
2200.11  41.529  23.735
2200.61  41.610  23.797
2201.11  41.529  23.828
2201.61  41.529  23.766
2202.11  41.529  23.766
2202.61  41.610  23.828
2203.11  41.529  23.766
2203.61  41.529  23.797
2204.11  41.448  23.797
2204.61  41.529  23.766
2205.11  41.448  23.797
2205.61  41.529  23.766
2206.11  41.529  23.766
2206.61  41.529  23.766
2207.11  41.610  23.797
2207.61  41.529  23.797
2208.11  41.529  23.766
2208.61  41.448  23.797
2209.11  41.610  23.766
2209.61  41.529  23.797
2210.11  41.529  23.766
2210.61  41.529  23.828
2211.11  41.610  23.797
2211.61  41.610  23.797
2212.11  41.529  23.797
2212.61  41.529  23.766
2213.11  41.529  23.828
2213.61  41.529  23.797
2214.11  41.448  23.828
2214.61  41.529  23.797
2215.11  41.448  23.797
2215.61  41.529  23.797
2216.11  41.529  23.797
2216.61  41.529  23.797
2217.11  41.529  23.766
2217.61  41.529  23.828
2218.11  41.529  23.797
2218.61  41.529  23.797
2219.11  41.448  23.797
2219.61  41.529  23.797
2220.11  41.529  23.797
2220.61  41.529  23.797
2221.11  41.529  23.797
2221.61  41.529  23.797
2222.11  41.529  23.766
2222.61  41.529  23.735
2223.11  41.529  23.766
2223.61  41.448  23.797
2224.11  41.529  23.797
2224.61  41.529  23.766
2225.11  41.448  23.797
2225.61  41.529  23.828
2226.11  41.529  23.828
2226.61  41.610  23.797
2227.11  41.529  23.797
2227.61  41.529  23.797
2228.11  41.529  23.797
2228.61  41.529  23.797
2229.11  41.448  23.797
2229.61  41.529  23.797
2230.11  41.529  23.766
2230.61  41.529  23.797
2231.11  41.529  23.797
2231.61  41.529  23.797
2232.11  41.529  23.797
2232.61  41.610  23.828
2233.11  41.529  23.828
2233.61  41.529  23.797
2234.11  41.529  23.797
2234.61  41.529  23.828
2235.11  41.529  23.766
2235.61  41.529  23.766
2236.11  41.529  23.797
2236.61  41.529  23.797
2237.11  41.529  23.766
2237.61  41.610  23.828
2238.11  41.529  23.828
2238.61  41.610  23.797
2239.11  41.610  23.859
2239.61  41.610  23.797
2240.11  41.529  23.828
2240.61  41.610  23.797
2241.11  41.529  23.797
2241.61  41.610  23.797
2242.11  41.529  23.735
2242.61  41.610  23.797
2243.11  41.610  23.797
2243.61  41.690  23.797
2244.11  41.529  23.797
2244.61  41.529  23.828
2245.11  41.610  23.797
2245.61  41.448  23.797
2246.11  41.529  23.828
2246.61  41.610  23.859
2247.11  41.448  23.797
2247.61  41.610  23.797
2248.11  41.529  23.766
2248.61  41.610  23.797
2249.11  41.610  23.828
2249.61  41.610  23.828
2250.11  41.529  23.797
2250.61  41.610  23.797
2251.11  41.610  23.797
2251.61  41.610  23.797
2252.11  41.529  23.797
2252.61  41.610  23.797
2253.12  41.448  23.797
2253.62  41.529  23.828
2254.12  41.448  23.797
2254.62  41.529  23.828
2255.12  41.610  23.797
2255.62  41.610  23.828
2256.12  41.529  23.797
2256.62  41.529  23.766
2257.12  41.610  23.797
2257.62  41.529  23.797
2258.12  41.610  23.797
2258.62  41.610  23.766
2259.12  41.610  23.797
2259.62  41.529  23.797
2260.12  41.610  23.797
2260.62  41.529  23.828
2261.12  41.610  23.797
2261.62  41.610  23.828
2262.12  41.610  23.797
2262.62  41.610  23.766
2263.12  41.610  23.797
2263.62  41.610  23.797
2264.12  41.610  23.828
2264.62  41.690  23.797
2265.12  41.610  23.828
2265.62  41.529  23.766
2266.12  41.610  23.828
2266.62  41.529  23.797
2267.12  41.610  23.828
2267.62  41.610  23.797
2268.12  41.690  23.797
2268.62  41.610  23.797
2269.12  41.610  23.797
2269.62  41.529  23.797
2270.12  41.610  23.797
2270.62  41.610  23.828
2271.12  41.610  23.797
2271.62  41.529  23.797
2272.12  41.529  23.797
2272.62  41.529  23.797
2273.12  41.529  23.797
2273.62  41.610  23.797
2274.12  41.529  23.797
2274.62  41.610  23.797
2275.12  41.529  23.797
2275.62  41.610  23.828
2276.12  41.610  23.797
2276.62  41.610  23.766
2277.12  41.610  23.797
2277.62  41.529  23.828
2278.12  41.690  23.797
2278.62  41.771  23.828
2279.12  41.448  23.828
2279.62  41.610  23.828
2280.12  41.610  23.828
2280.62  41.529  23.859
2281.12  41.610  23.797
2281.62  41.529  23.735
2282.12  41.610  23.766
2282.62  41.529  23.797
2283.12  41.690  23.797
2283.62  41.690  23.828
2284.12  41.610  23.797
2284.62  41.610  23.766
2285.12  41.690  23.797
2285.62  41.610  23.797
2286.12  41.610  23.797
2286.62  41.690  23.797
2287.12  41.690  23.797
2287.62  41.610  23.859
2288.12  41.610  23.828
2288.62  41.610  23.797
2289.12  41.690  23.828
2289.62  41.448  23.766
2290.12  41.610  23.828
2290.62  41.610  23.828
2291.12  41.529  23.797
2291.62  41.690  23.797
2292.12  41.610  23.828
2292.62  41.690  23.797
2293.12  41.610  23.828
2293.62  41.610  23.797
2294.12  41.610  23.797
2294.62  41.529  23.828
2295.12  41.690  23.859
2295.62  41.610  23.828
2296.12  41.690  23.797
2296.62  41.610  23.766
2297.12  41.610  23.828
2297.62  41.690  23.828
2298.12  41.690  23.828
2298.62  41.690  23.797
2299.12  41.610  23.797
2299.62  41.610  23.797
2300.12  41.610  23.828
2300.62  41.690  23.828
2301.12  41.610  23.797
2301.62  41.610  23.797
2302.12  41.690  23.859
2302.62  41.529  23.828
2303.12  41.610  23.828
2303.62  41.610  23.797
2304.12  41.610  23.797
2304.62  41.610  23.797
2305.12  41.610  23.797
2305.62  41.771  23.828
2306.12  41.610  23.797
2306.62  41.529  23.828
2307.12  41.610  23.828
2307.62  41.690  23.828
2308.12  41.690  23.797
2308.62  41.690  23.828
2309.12  41.610  23.859
2309.62  41.610  23.828
2310.12  41.529  23.797
2310.62  41.771  23.828
2311.12  41.610  23.828
2311.62  41.610  23.797
2312.12  41.610  23.797
2312.62  41.610  23.828
2313.12  41.529  23.797
2313.62  41.610  23.797
2314.12  41.690  23.828
2314.62  41.610  23.859
2315.12  41.690  23.828
2315.62  41.690  23.766
2316.12  41.690  23.797
2316.62  41.610  23.828
2317.12  41.690  23.797
2317.62  41.610  23.797
2318.12  41.610  23.828
2318.62  41.610  23.828
2319.12  41.610  23.797
2319.62  41.610  23.828
2320.12  41.690  23.766
2320.62  41.610  23.828
2321.12  41.690  23.797
2321.62  41.610  23.797
2322.12  41.610  23.828
2322.62  41.529  23.797
2323.12  41.690  23.797
2323.62  41.690  23.797
2324.12  41.610  23.797
2324.62  41.610  23.828
2325.12  41.690  23.828
2325.62  41.610  23.828
2326.12  41.610  23.797
2326.62  41.690  23.828
2327.12  41.529  23.828
2327.62  41.610  23.797
2328.12  41.610  23.797
2328.62  41.771  23.828
2329.12  41.610  23.828
2329.62  41.690  23.797
2330.12  41.690  23.828
2330.62  41.610  23.859
2331.12  41.690  23.828
2331.62  41.610  23.797
2332.12  41.610  23.828
2332.62  41.690  23.797
2333.12  41.529  23.859
2333.62  41.690  23.797
2334.12  41.690  23.797
2334.62  41.610  23.828
2335.12  41.690  23.797
2335.62  41.610  23.828
2336.12  41.610  23.828
2336.62  41.690  23.859
2337.12  41.690  23.828
2337.62  41.610  23.828
2338.12  41.690  23.859
2338.62  41.529  23.828
2339.12  41.690  23.859
2339.62  41.690  23.828
2340.12  41.690  23.828
2340.62  41.690  23.859
2341.12  41.690  23.797
2341.62  41.610  23.828
2342.12  41.690  23.828
2342.62  41.690  23.828
2343.12  41.690  23.828
2343.62  41.771  23.828
2344.12  41.690  23.828
2344.62  41.690  23.859
2345.12  41.690  23.828
2345.62  41.690  23.828
2346.12  41.690  23.859
2346.62  41.690  23.828
2347.12  41.610  23.828
2347.62  41.610  23.828
2348.12  41.690  23.859
2348.62  41.690  23.797
2349.12  41.690  23.828
2349.62  41.932  23.828
2350.12  41.690  23.828
2350.62  41.690  23.828
2351.12  41.690  23.828
2351.62  41.690  23.828
2352.12  41.690  23.828
2352.62  41.690  23.828
2353.12  41.610  23.797
2353.62  41.610  23.859
2354.12  41.610  23.828
2354.62  41.771  23.797
2355.12  41.690  23.828
2355.62  41.690  23.828
2356.12  41.690  23.828
2356.62  41.690  23.828
2357.12  41.690  23.828
2357.62  41.610  23.859
2358.12  41.690  23.828
2358.62  41.690  23.828
2359.12  41.690  23.828
2359.62  41.690  23.920
2360.12  41.690  23.797
2360.62  41.771  23.828
2361.12  41.771  23.828
2361.62  41.690  23.797
2362.12  41.690  23.797
2362.62  41.690  23.828
2363.12  41.690  23.828
2363.62  41.690  23.859
2364.12  41.690  23.828
2364.62  41.690  23.828
2365.12  41.690  23.828
2365.62  41.771  23.828
2366.12  41.610  23.859
2366.63  41.690  23.828
2367.13  41.690  23.828
2367.63  41.690  23.828
2368.13  41.690  23.828
2368.63  41.690  23.859
2369.13  41.852  23.797
2369.63  41.690  23.828
2370.13  41.690  23.828
2370.63  41.852  23.797
2371.13  41.690  23.828
2371.63  41.610  23.889
2372.13  41.690  23.828
2372.63  41.690  23.828
2373.13  41.690  23.889
2373.63  41.690  23.828
2374.13  41.690  23.828
2374.63  41.690  23.828
2375.13  41.690  23.859
2375.63  41.771  23.828
2376.13  41.690  23.859
2376.63  41.529  23.828
2377.13  41.610  23.828
2377.63  41.690  23.797
2378.13  41.610  23.828
2378.63  41.771  23.828
2379.13  41.690  23.859
2379.63  41.690  23.828
2380.13  41.690  23.828
2380.63  41.771  23.859
2381.13  41.690  23.828
2381.63  41.690  23.859
2382.13  41.690  23.797
2382.63  41.690  23.828
2383.13  41.610  23.797
2383.63  41.771  23.859
2384.13  41.771  23.859
2384.63  41.690  23.828
2385.13  41.690  23.797
2385.63  41.610  23.828
2386.13  41.690  23.828
2386.63  41.771  23.797
2387.13  41.690  23.828
2387.63  41.690  23.828
2388.13  41.690  23.828
2388.63  41.690  23.859
2389.13  41.529  23.828
2389.63  41.690  23.859
2390.13  41.771  23.859
2390.63  41.771  23.828
2391.13  41.690  23.859
2391.63  41.690  23.828
2392.13  41.690  23.859
2392.63  41.690  23.828
2393.13  41.690  23.828
2393.63  41.690  23.859
2394.13  41.690  23.828
2394.63  41.690  23.828
2395.13  41.690  23.797
2395.63  41.771  23.859
2396.13  41.610  23.828
2396.63  41.690  23.828
2397.13  41.690  23.828
2397.63  41.852  23.828
2398.13  41.690  23.828
2398.63  41.690  23.828
2399.13  41.771  23.828
2399.63  41.852  23.828
2400.13  41.690  23.859
2400.63  41.771  23.828
2401.13  41.690  23.859
2401.63  41.690  23.859
2402.13  41.690  23.828
2402.63  41.690  23.828
2403.13  41.690  23.828
2403.63  41.690  23.828
2404.13  41.771  23.828
2404.63  41.771  23.859
2405.13  41.690  23.828
2405.63  41.690  23.828
2406.13  41.690  23.859
2406.63  41.771  23.859
2407.13  41.690  23.828
2407.63  41.690  23.828
2408.13  41.610  23.828
2408.63  41.771  23.859
2409.13  41.690  23.828
2409.63  41.690  23.828
2410.13  41.690  23.828
2410.63  41.690  23.859
2411.13  41.690  23.828
2411.63  41.690  23.828
2412.13  41.690  23.859
2412.63  41.771  23.828
2413.13  41.690  23.828
2413.63  41.771  23.859
2414.13  41.771  23.859
2414.63  41.690  23.859
2415.13  41.690  23.859
2415.63  41.771  23.859
2416.13  41.690  23.828
2416.63  41.690  23.828
2417.13  41.771  23.859
2417.63  41.771  23.859
2418.13  41.690  23.828
2418.63  41.771  23.859
2419.13  41.690  23.828
2419.63  41.852  23.828
2420.13  41.690  23.828
2420.63  41.771  23.889
2421.13  41.771  23.859
2421.63  41.771  23.828
2422.13  41.690  23.859
2422.63  41.690  23.859
2423.13  41.771  23.859
2423.63  41.852  23.859
2424.13  41.690  23.859
2424.63  41.690  23.859
2425.13  41.932  23.797
2425.63  41.771  23.859
2426.13  41.690  23.828
2426.63  41.771  23.920
2427.13  41.771  23.828
2427.63  41.771  23.889
2428.13  41.771  23.859
2428.63  41.690  23.859
2429.13  41.852  23.828
2429.63  41.690  23.859
2430.13  41.771  23.797
2430.63  41.771  23.859
2431.13  41.690  23.859
2431.63  41.771  23.859
2432.13  41.690  23.859
2432.63  41.771  23.828
2433.13  41.771  23.828
2433.63  41.690  23.828
2434.13  41.771  23.859
2434.63  41.771  23.859
2435.13  41.771  23.797
2435.63  41.771  23.828
2436.13  41.690  23.859
2436.63  41.771  23.828
2437.13  41.771  23.828
2437.63  41.771  23.859
2438.13  41.771  23.859
2438.63  41.771  23.828
2439.13  41.771  23.859
2439.63  41.690  23.859
2440.13  41.771  23.859
2440.63  41.852  23.859
2441.13  41.771  23.859
2441.63  41.771  23.828
2442.13  41.771  23.859
2442.63  41.852  23.859
2443.13  41.771  23.828
2443.63  41.771  23.859
2444.13  41.771  23.828
2444.63  41.771  23.828
2445.13  41.771  23.859
2445.63  41.690  23.828
2446.13  41.852  23.859
2446.63  41.852  23.859
2447.13  41.771  23.859
2447.63  41.771  23.859
2448.13  41.771  23.920
2448.63  41.932  23.859
2449.13  41.771  23.828
2449.63  41.771  23.828
2450.13  41.852  23.859
2450.63  41.771  23.889
2451.13  41.690  23.859
2451.63  41.690  23.828
2452.13  41.771  23.859
2452.63  41.771  23.828
2453.13  41.690  23.859
2453.63  41.690  23.828
2454.13  41.771  23.859
2454.63  41.771  23.859
2455.13  41.771  23.859
2455.63  41.852  23.859
2456.13  41.771  23.859
2456.63  41.771  23.859
2457.13  41.690  23.859
2457.63  41.852  23.889
2458.13  41.690  23.859
2458.63  41.690  23.859
2459.13  41.771  23.859
2459.63  41.771  23.889
2460.13  41.690  23.889
2460.63  41.771  23.889
2461.13  41.690  23.859
2461.63  41.771  23.859
2462.13  41.771  23.859
2462.63  41.771  23.859
2463.13  41.771  23.889
2463.63  41.771  23.828
2464.13  41.852  23.859
2464.63  41.690  23.797
2465.13  41.771  23.828
2465.63  41.771  23.859
2466.13  41.771  23.828
2466.63  41.771  23.859
2467.13  41.852  23.797
2467.63  41.771  23.859
2468.13  41.771  23.889
2468.64  41.529  23.859
2469.14  41.771  23.828
2469.64  41.771  23.828
2470.14  41.771  23.859
2470.64  41.852  23.889
2471.14  41.771  23.889
2471.64  41.771  23.828
2472.14  41.771  23.859
2472.64  41.771  23.828
2473.14  41.771  23.859
2473.64  41.771  23.859
2474.14  41.771  23.889
2474.64  41.771  23.828
2475.14  41.852  23.859
2475.64  41.771  23.828
2476.14  41.771  23.859
2476.64  41.771  23.859
2477.14  41.690  23.828
2477.64  41.771  23.828
2478.14  41.771  23.889
2478.64  41.771  23.859
2479.14  41.771  23.859
2479.64  41.771  23.828
2480.14  41.771  23.889
2480.64  41.771  23.859
2481.14  41.852  23.859
2481.64  41.771  23.859
2482.14  41.771  23.859
2482.64  41.610  23.859
2483.14  41.852  23.920
2483.64  41.852  23.859
2484.14  41.771  23.859
2484.64  41.932  23.920
2485.14  41.690  23.859
2485.64  41.771  23.859
2486.14  41.771  23.859
2486.64  41.932  23.859
2487.14  41.852  23.859
2487.64  41.852  23.828
2488.14  41.771  23.859
2488.64  41.771  23.889
2489.14  41.771  23.859
2489.64  41.771  23.828
2490.14  41.771  23.859
2490.64  41.771  23.889
2491.14  41.852  23.859
2491.64  41.852  23.859
2492.14  41.690  23.859
2492.64  41.771  23.859
2493.14  41.852  23.797
2493.64  41.852  23.859
2494.14  41.771  23.859
2494.64  41.852  23.859
2495.14  41.852  23.859
2495.64  41.852  23.859
2496.14  41.771  23.889
2496.64  41.771  23.859
2497.14  41.771  23.859
2497.64  41.852  23.889
2498.14  41.771  23.828
2498.64  41.852  23.859
2499.14  41.771  23.859
2499.64  41.852  23.859
2500.14  41.771  23.859
2500.64  41.932  23.828
2501.14  41.771  23.859
