   2.00  24.348  24.105
   2.50  24.375  24.105
   3.00  24.375  24.074
   3.50  24.375  24.105
   4.00  24.348  24.105
   4.50  24.401  24.105
   5.00  24.427  24.105
   5.50  24.427  24.105
   6.00  24.401  24.105
   6.50  24.427  24.105
   7.00  24.401  24.074
   7.50  24.401  24.074
   8.00  24.375  24.074
   8.50  24.401  24.105
   9.00  24.375  24.105
   9.50  24.375  24.074
  10.00  24.375  24.074
  10.50  24.348  24.074
  11.00  24.401  24.074
  11.50  24.375  24.074
  12.00  24.348  24.105
  12.50  24.375  24.074
  13.00  24.401  24.105
  13.50  24.401  24.074
  14.00  24.375  24.105
  14.50  24.375  24.105
  15.00  24.375  24.105
  15.50  24.375  24.105
  16.00  24.375  24.074
  16.50  24.375  24.105
  17.00  24.375  24.074
  17.50  24.401  24.074
  18.00  24.375  24.074
  18.50  24.427  24.136
  19.00  24.375  24.105
  19.50  24.401  24.105
  20.00  24.375  24.105
  20.50  24.375  24.136
  21.00  24.375  24.136
  21.50  24.375  24.105
  22.00  24.401  24.136
  22.50  24.375  24.105
  23.00  24.375  24.197
  23.50  24.375  24.197
  24.00  24.375  24.259
  24.50  24.375  24.259
  25.00  24.375  24.290
  25.50  24.375  24.321
  26.00  24.401  24.321
  26.50  24.375  24.321
  27.00  24.375  24.351
  27.50  24.375  24.351
  28.00  24.375  24.382
  28.50  24.375  24.382
  29.00  24.348  24.444
  29.50  24.348  24.413
  30.00  24.375  24.475
  30.50  24.375  24.475
  31.00  24.348  24.536
  31.50  24.348  24.536
  32.00  24.375  24.567
  32.50  24.375  24.536
  33.00  24.348  24.598
  33.50  24.375  24.598
  34.00  24.322  24.629
  34.50  24.348  24.660
  35.00  24.348  24.660
  35.50  24.375  24.721
  36.00  24.375  24.721
  36.50  24.375  24.721
  37.00  24.375  24.721
  37.50  24.375  24.721
  38.00  24.375  24.752
  38.50  24.401  24.783
  39.00  24.348  24.783
  39.50  24.348  24.814
  40.00  24.375  24.814
  40.50  24.375  24.814
  41.00  24.375  24.906
  41.50  24.348  24.906
  42.00  24.375  24.906
  42.50  24.348  24.906
  43.00  24.375  24.906
  43.50  24.348  24.968
  44.00  24.322  24.998
  44.50  24.375  24.968
  45.00  24.375  24.968
  45.50  24.375  24.998
  46.00  24.322  24.968
  46.50  24.375  25.176
  47.00  24.375  25.176
  47.51  24.348  25.362
  48.01  24.375  25.176
  48.51  24.348  25.547
  49.01  24.348  25.362
  49.51  24.348  25.732
  50.01  24.401  25.547
  50.51  24.348  25.732
  51.01  24.348  25.732
  51.51  24.348  26.103
  52.01  24.348  25.918
  52.51  24.348  25.732
  53.01  24.348  26.103
  53.51  24.401  26.103
  54.01  24.375  26.288
  54.51  24.401  26.288
  55.01  24.348  26.288
  55.51  24.375  26.288
  56.01  24.348  26.288
  56.51  24.322  26.659
  57.01  24.348  26.659
  57.51  24.322  26.659
  58.01  24.348  26.845
  58.51  24.322  26.659
  59.01  24.348  26.845
  59.51  24.348  26.845
  60.01  24.375  27.030
  60.51  24.322  26.845
  61.01  24.348  27.030
  61.51  24.348  27.215
  62.01  24.348  27.215
  62.51  24.375  27.401
  63.01  24.348  27.215
  63.51  24.348  27.401
  64.01  24.348  27.401
  64.51  24.348  27.586
  65.01  24.348  27.586
  65.51  24.322  27.215
  66.01  24.348  27.586
  66.51  24.322  27.772
  67.01  24.348  27.772
  67.51  24.348  27.772
  68.01  24.348  27.772
  68.51  24.348  27.957
  69.01  24.375  27.957
  69.51  24.322  27.957
  70.01  24.322  28.142
  70.51  24.348  27.957
  71.01  24.348  27.957
  71.51  24.322  28.328
  72.01  24.348  28.328
  72.51  24.322  28.142
  73.01  24.322  28.142
  73.51  24.375  28.328
  74.01  24.348  28.513
  74.51  24.401  28.513
  75.01  24.322  28.513
  75.51  24.348  28.513
  76.01  24.348  28.328
  76.51  24.322  28.513
  77.01  24.348  28.884
  77.51  24.348  29.069
  78.01  24.348  28.884
  78.51  24.322  28.884
  79.01  24.322  28.699
  79.51  24.322  28.884
  80.01  24.348  28.699
  80.51  24.296  29.069
  81.01  24.322  28.884
  81.51  24.322  29.069
  82.01  24.348  29.069
  82.51  24.375  29.440
  83.01  24.348  29.255
  83.51  24.348  29.255
  84.01  24.322  29.440
  84.51  24.322  29.255
  85.01  24.322  29.255
  85.51  24.348  29.626
  86.01  24.375  29.626
  86.51  24.322  29.626
  87.01  24.322  29.440
  87.51  24.348  29.811
  88.01  24.322  29.626
  88.51  24.322  29.626
  89.01  24.348  29.811
  89.51  24.322  29.811
  90.01  24.348  29.811
  90.51  24.348  29.811
  91.01  24.348  29.811
  91.51  24.348  29.811
  92.01  24.322  29.996
  92.51  24.348  30.098
  93.01  24.322  29.996
  93.51  24.322  29.996
  94.01  24.348  30.098
  94.51  24.348  30.098
  95.01  24.322  30.098
  95.51  24.348  30.198
  96.01  24.348  30.098
  96.51  24.348  30.198
  97.01  24.322  30.098
  97.51  24.322  30.299
  98.01  24.348  30.098
  98.51  24.322  30.299
  99.01  24.322  30.198
  99.51  24.322  30.198
 100.01  24.348  30.399
 100.51  24.322  30.299
 101.01  24.322  30.499
 101.51  24.348  30.399
 102.01  24.322  30.399
 102.51  24.322  30.499
 103.01  24.322  30.299
 103.51  24.322  30.599
 104.01  24.348  30.499
 104.51  24.375  30.499
 105.01  24.348  30.499
 105.51  24.348  30.699
 106.01  24.322  30.399
 106.51  24.322  30.599
 107.01  24.348  30.599
 107.51  24.322  30.599
 108.01  24.322  30.499
 108.51  24.322  30.599
 109.01  24.296  30.599
 109.51  24.322  30.799
 110.01  24.348  30.799
 110.51  24.270  30.599
 111.01  24.322  30.699
 111.51  24.296  30.699
 112.01  24.296  30.799
 112.51  24.322  30.699
 113.01  24.322  30.799
 113.51  24.322  30.799
 114.01  24.296  30.799
 114.51  24.322  31.000
 115.01  24.322  30.900
 115.51  24.322  30.900
 116.01  24.322  30.900
 116.51  24.270  31.100
 117.01  24.348  30.900
 117.51  24.322  30.900
 118.01  24.296  30.900
 118.51  24.401  31.000
 119.01  24.322  30.900
 119.51  24.348  30.900
 120.01  24.322  30.900
 120.51  24.322  31.100
 121.01  24.296  31.100
 121.51  24.244  31.000
 122.01  24.348  31.100
 122.51  24.296  31.100
 123.01  24.322  31.100
 123.51  24.322  31.000
 124.01  24.322  31.200
 124.51  24.322  31.200
 125.01  24.296  31.200
 125.51  24.296  31.200
 126.01  24.322  31.200
 126.51  24.296  31.300
 127.01  24.322  31.401
 127.51  24.296  31.200
 128.01  24.296  31.200
 128.51  24.296  31.200
 129.01  24.296  31.200
 129.51  24.322  31.300
 130.01  24.244  31.300
 130.51  24.270  31.401
 131.01  24.296  31.601
 131.51  24.322  31.300
 132.01  24.322  31.501
 132.51  24.296  31.401
 133.01  24.296  31.401
 133.51  24.296  31.501
 134.01  24.348  31.501
 134.51  24.296  31.401
 135.01  24.296  31.401
 135.51  24.322  31.601
 136.01  24.296  31.501
 136.51  24.270  31.501
 137.01  24.296  31.501
 137.51  24.270  31.501
 138.01  24.322  31.501
 138.51  24.296  31.601
 139.01  24.270  31.601
 139.51  24.322  31.601
 140.01  24.296  31.601
 140.51  24.322  31.701
 141.01  24.296  31.801
 141.51  24.296  31.601
 142.01  24.296  31.801
 142.51  24.322  31.701
 143.01  24.322  31.701
 143.51  24.296  31.801
 144.01  24.322  31.601
 144.51  24.296  31.701
 145.01  24.322  31.701
 145.51  24.322  31.801
 146.01  24.270  31.901
 146.51  24.270  31.901
 147.01  24.322  31.801
 147.51  24.270  31.801
 148.01  24.296  31.801
 148.51  24.296  31.901
 149.01  24.296  31.901
 149.51  24.322  31.801
 150.01  24.322  31.901
 150.51  24.348  32.002
 151.01  24.296  31.801
 151.51  24.296  31.901
 152.01  24.296  31.901
 152.51  24.322  32.002
 153.01  24.322  31.901
 153.51  24.296  32.102
 154.01  24.270  32.102
 154.51  24.296  32.002
 155.01  24.322  32.002
 155.51  24.270  32.002
 156.01  24.296  32.102
 156.51  24.296  32.002
 157.01  24.296  32.102
 157.51  24.244  32.202
 158.01  24.270  32.102
 158.51  24.296  32.102
 159.01  24.270  32.202
 159.51  24.296  32.302
 160.01  24.270  32.102
 160.51  24.296  32.202
 161.01  24.375  32.202
 161.51  24.270  32.202
 162.01  24.270  32.202
 162.51  24.296  32.202
 163.01  24.296  32.202
 163.51  24.296  32.302
 164.01  24.322  32.102
 164.51  24.270  32.202
 165.01  24.270  32.202
 165.51  24.296  32.202
 166.01  24.322  32.302
 166.51  24.296  32.402
 167.01  24.296  32.302
 167.51  24.296  32.302
 168.01  24.270  32.402
 168.51  24.270  32.402
 169.01  24.296  32.402
 169.51  24.296  32.402
 170.01  24.270  32.402
 170.51  24.296  32.402
 171.01  24.296  32.402
 171.52  24.296  32.503
 172.02  24.296  32.402
 172.52  24.296  32.402
 173.02  24.322  32.503
 173.52  24.296  32.503
 174.02  24.270  32.503
 174.52  24.322  32.603
 175.02  24.296  32.503
 175.52  24.296  32.503
 176.02  24.296  32.603
 176.52  24.322  32.503
 177.02  24.296  32.603
 177.52  24.270  32.703
 178.02  24.270  32.603
 178.52  24.270  32.603
 179.02  24.270  32.603
 179.52  24.296  32.703
 180.02  24.348  32.703
 180.52  24.270  32.803
 181.02  24.244  32.703
 181.52  24.244  32.703
 182.02  24.296  32.703
 182.52  24.296  32.803
 183.02  24.270  32.803
 183.52  24.270  32.803
 184.02  24.270  32.703
 184.52  24.270  32.803
 185.02  24.270  32.803
 185.52  24.270  32.803
 186.02  24.296  32.803
 186.52  24.244  33.003
 187.02  24.296  32.903
 187.52  24.270  32.703
 188.02  24.296  32.803
 188.52  24.296  32.803
 189.02  24.296  32.903
 189.52  24.296  32.803
 190.02  24.270  32.903
 190.52  24.244  32.903
 191.02  24.270  32.903
 191.52  24.244  32.903
 192.02  24.270  32.903
 192.52  24.270  33.003
 193.02  24.270  33.003
 193.52  24.296  33.003
 194.02  24.270  33.003
 194.52  24.270  33.003
 195.02  24.270  33.104
 195.52  24.270  33.003
 196.02  24.244  33.003
 196.52  24.270  33.104
 197.02  24.270  33.104
 197.52  24.296  33.003
 198.02  24.296  33.204
 198.52  24.270  33.104
 199.02  24.296  33.304
 199.52  24.270  33.204
 200.02  24.296  33.204
 200.52  24.296  33.204
 201.02  24.296  33.204
 201.52  24.296  33.204
 202.02  24.270  33.204
 202.52  24.244  33.204
 203.02  24.270  33.104
 203.52  24.296  33.304
 204.02  24.270  33.204
 204.52  24.244  33.304
 205.02  24.270  33.204
 205.52  24.296  33.404
 206.02  24.270  33.204
 206.52  24.244  33.304
 207.02  24.270  33.304
 207.52  24.270  33.304
 208.02  24.270  33.204
 208.52  24.270  33.404
 209.02  24.270  33.404
 209.52  24.270  33.304
 210.02  24.270  33.404
 210.52  24.270  33.304
 211.02  24.244  33.404
 211.52  24.322  33.404
 212.02  24.270  33.404
 212.52  24.270  33.404
 213.02  24.270  33.404
 213.52  24.270  33.404
 214.02  24.296  33.504
 214.52  24.270  33.404
 215.02  24.296  33.404
 215.52  24.270  33.404
 216.02  24.296  33.404
 216.52  24.270  33.404
 217.02  24.218  33.604
 217.52  24.270  33.404
 218.02  24.296  33.504
 218.52  24.244  33.504
 219.02  24.218  33.404
 219.52  24.270  33.404
 220.02  24.244  33.504
 220.52  24.244  33.404
 221.02  24.296  33.504
 221.52  24.270  33.504
 222.02  24.244  33.504
 222.52  24.244  33.504
 223.02  24.244  33.604
 223.52  24.244  33.504
 224.02  24.244  33.705
 224.52  24.296  33.604
 225.02  24.244  33.705
 225.52  24.244  33.604
 226.02  24.270  33.604
 226.52  24.244  33.604
 227.02  24.270  33.604
 227.52  24.270  33.705
 228.02  24.244  33.705
 228.52  24.270  33.805
 229.02  24.270  33.705
 229.52  24.244  33.705
 230.02  24.270  33.905
 230.52  24.296  33.705
 231.02  24.270  33.705
 231.52  24.244  33.705
 232.02  24.244  33.705
 232.52  24.244  33.805
 233.02  24.244  33.805
 233.52  24.270  33.805
 234.02  24.296  33.705
 234.52  24.270  33.905
 235.02  24.270  33.805
 235.52  24.244  33.805
 236.02  24.322  33.905
 236.52  24.270  33.905
 237.02  24.270  33.805
 237.52  24.322  33.805
 238.02  24.218  33.905
 238.52  24.270  33.805
 239.02  24.270  34.005
 239.52  24.270  33.905
 240.02  24.270  34.005
 240.52  24.270  34.005
 241.02  24.270  34.005
 241.52  24.218  33.905
 242.02  24.244  34.005
 242.52  24.244  34.005
 243.02  24.244  33.805
 243.52  24.244  33.805
 244.02  24.244  34.105
 244.52  24.270  34.005
 245.02  24.296  34.105
 245.52  24.218  34.005
 246.02  24.270  34.005
 246.52  24.244  34.005
 247.02  24.244  34.005
 247.52  24.244  34.005
 248.02  24.296  34.105
 248.52  24.296  34.005
 249.02  24.296  34.105
 249.52  24.270  34.105
 250.02  24.218  34.105
 250.52  24.218  34.105
 251.02  24.296  34.005
 251.52  24.296  34.105
 252.02  24.296  34.105
 252.52  24.244  34.206
 253.02  24.270  34.206
 253.52  24.218  34.105
 254.02  24.270  34.206
 254.52  24.218  34.206
 255.02  24.270  34.206
 255.52  24.244  34.005
 256.02  24.244  34.105
 256.52  24.270  34.206
 257.02  24.244  34.306
 257.52  24.270  34.206
 258.02  24.270  34.206
 258.52  24.244  34.206
 259.02  24.244  34.206
 259.52  24.270  34.206
 260.02  24.244  34.306
 260.52  24.270  34.306
 261.02  24.244  34.306
 261.52  24.270  34.406
 262.02  24.270  34.406
 262.52  24.244  34.306
 263.02  24.218  34.306
 263.52  24.270  34.406
 264.02  24.270  34.306
 264.52  24.218  34.406
 265.02  24.270  34.406
 265.52  24.270  34.306
 266.02  24.244  34.306
 266.52  24.270  34.406
 267.02  24.270  34.406
 267.52  24.270  34.406
 268.02  24.244  34.406
 268.52  24.270  34.406
 269.02  24.244  34.406
 269.52  24.270  34.406
 270.02  24.296  34.406
 270.52  24.244  34.406
 271.02  24.270  34.506
 271.52  24.244  34.506
 272.02  24.192  34.606
 272.52  24.270  34.706
 273.02  24.244  34.406
 273.52  24.244  34.506
 274.02  24.322  34.506
 274.52  24.218  34.506
 275.02  24.218  34.506
 275.52  24.244  34.506
 276.02  24.218  34.606
 276.52  24.244  34.406
 277.02  24.218  34.506
 277.52  24.244  34.606
 278.02  24.270  34.506
 278.52  24.244  34.606
 279.02  24.270  34.606
 279.52  24.244  34.606
 280.02  24.244  34.807
 280.52  24.270  34.706
 281.02  24.244  34.606
 281.52  24.244  34.606
 282.02  24.218  34.606
 282.52  24.244  34.606
 283.02  24.244  34.606
 283.52  24.244  34.706
 284.02  24.218  34.706
 284.52  24.218  34.606
 285.03  24.244  34.606
 285.53  24.244  34.706
 286.03  24.244  34.807
 286.53  24.218  34.706
 287.03  24.218  34.706
 287.53  24.244  34.706
 288.03  24.218  34.706
 288.53  24.218  34.606
 289.03  24.218  34.706
 289.53  24.244  34.706
 290.03  24.244  34.706
 290.53  24.218  34.706
 291.03  24.192  34.706
 291.53  24.244  34.706
 292.03  24.192  34.807
 292.53  24.244  34.706
 293.03  24.244  34.606
 293.53  24.244  34.807
 294.03  24.218  34.907
 294.53  24.244  34.706
 295.03  24.270  34.907
 295.53  24.192  34.807
 296.03  24.218  34.907
 296.53  24.270  34.907
 297.03  24.218  34.807
 297.53  24.244  34.807
 298.03  24.218  34.907
 298.53  24.244  34.807
 299.03  24.218  34.907
 299.53  24.244  34.907
 300.03  24.244  34.807
 300.53  24.296  34.907
 301.03  24.244  35.005
 301.53  24.218  34.907
 302.03  24.244  34.907
 302.53  24.244  35.005
 303.03  24.218  34.907
 303.53  24.192  34.907
 304.03  24.244  34.907
 304.53  24.244  34.907
 305.03  24.244  35.005
 305.53  24.244  34.907
 306.03  24.218  35.005
 306.53  24.270  35.005
 307.03  24.244  34.907
 307.53  24.218  35.005
 308.03  24.244  35.005
 308.53  24.244  35.005
 309.03  24.218  35.005
 309.53  24.218  35.005
 310.03  24.244  35.005
 310.53  24.218  35.005
 311.03  24.218  35.005
 311.53  24.218  35.078
 312.03  24.218  35.078
 312.53  24.218  35.078
 313.03  24.244  35.078
 313.53  24.218  35.372
 314.03  24.270  35.078
 314.53  24.192  34.907
 315.03  24.244  35.152
 315.53  24.244  35.078
 316.03  24.218  35.078
 316.53  24.244  35.078
 317.03  24.244  35.078
 317.53  24.192  35.152
 318.03  24.218  35.152
 318.53  24.218  35.152
 319.03  24.218  35.005
 319.53  24.244  35.152
 320.03  24.192  35.078
 320.53  24.218  35.152
 321.03  24.166  35.078
 321.53  24.244  35.152
 322.03  24.218  35.152
 322.53  24.218  35.152
 323.03  24.192  35.152
 323.53  24.192  35.225
 324.03  24.218  35.152
 324.53  24.244  35.078
 325.03  24.218  35.225
 325.53  24.218  35.152
 326.03  24.244  35.152
 326.53  24.218  35.078
 327.03  24.192  35.298
 327.53  24.270  35.225
 328.03  24.270  35.225
 328.53  24.244  35.225
 329.03  24.218  35.225
 329.53  24.218  35.225
 330.03  24.218  35.225
 330.53  24.244  35.225
 331.03  24.244  35.225
 331.53  24.244  35.298
 332.03  24.218  35.372
 332.53  24.270  35.298
 333.03  24.244  35.298
 333.53  24.218  35.298
 334.03  24.244  35.298
 334.53  24.244  35.225
 335.03  24.270  35.298
 335.53  24.244  35.298
 336.03  24.192  35.225
 336.53  24.218  35.298
 337.03  24.244  35.372
 337.53  24.218  35.298
 338.03  24.218  35.298
 338.53  24.244  35.372
 339.03  24.270  35.372
 339.53  24.218  35.372
 340.03  24.218  35.445
 340.53  24.218  35.372
 341.03  24.244  35.372
 341.53  24.218  35.372
 342.03  24.192  35.298
 342.53  24.218  35.225
 343.03  24.218  35.372
 343.53  24.218  35.372
 344.03  24.218  35.372
 344.53  24.218  35.298
 345.03  24.244  35.298
 345.53  24.218  35.445
 346.03  24.192  35.372
 346.53  24.244  35.372
 347.03  24.270  35.298
 347.53  24.244  35.445
 348.03  24.218  35.445
 348.53  24.296  35.372
 349.03  24.192  35.372
 349.53  24.244  35.372
 350.03  24.192  35.445
 350.53  24.322  35.445
 351.03  24.218  35.372
 351.53  24.192  35.445
 352.03  24.244  35.445
 352.53  24.218  35.445
 353.03  24.218  35.445
 353.53  24.166  35.445
 354.03  24.192  35.445
 354.53  24.192  35.518
 355.03  24.192  35.372
 355.53  24.218  35.518
 356.03  24.218  35.445
 356.53  24.244  35.518
 357.03  24.192  35.518
 357.53  24.218  35.518
 358.03  24.218  35.592
 358.53  24.244  35.445
 359.03  24.192  35.518
 359.53  24.218  35.592
 360.03  24.218  35.445
 360.53  24.218  35.518
 361.03  24.166  35.518
 361.53  24.192  35.445
 362.03  24.218  35.518
 362.53  24.192  35.592
 363.03  24.192  35.518
 363.53  24.192  35.592
 364.03  24.244  35.592
 364.53  24.218  35.592
 365.03  24.192  35.518
 365.53  24.218  35.518
 366.03  24.192  35.592
 366.53  24.244  35.592
 367.03  24.244  35.665
 367.53  24.218  35.592
 368.03  24.218  35.665
 368.53  24.192  35.592
 369.03  24.192  35.665
 369.53  24.192  35.592
 370.03  24.244  35.665
 370.53  24.192  35.518
 371.03  24.192  35.445
 371.53  24.218  35.592
 372.03  24.192  35.665
 372.53  24.192  35.665
 373.03  24.218  35.665
 373.53  24.192  35.665
 374.03  24.270  35.592
 374.53  24.218  35.592
 375.03  24.244  35.592
 375.53  24.166  35.665
 376.03  24.218  35.665
 376.53  24.192  35.592
 377.03  24.270  35.592
 377.53  24.244  35.665
 378.03  24.218  35.738
 378.53  24.218  35.738
 379.03  24.218  35.738
 379.53  24.192  35.665
 380.03  24.192  35.665
 380.53  24.218  35.665
 381.03  24.218  35.665
 381.53  24.192  35.738
 382.03  24.244  35.738
 382.53  24.218  35.665
 383.03  24.192  35.738
 383.53  24.244  35.738
 384.03  24.218  35.665
 384.53  24.244  35.738
 385.03  24.192  35.738
 385.53  24.244  35.738
 386.03  24.218  35.812
 386.53  24.218  35.812
 387.04  24.244  35.812
 387.54  24.192  35.738
 388.04  24.218  35.812
 388.54  24.244  35.812
 389.04  24.218  35.738
 389.54  24.218  35.958
 390.04  24.218  35.812
 390.54  24.218  35.812
 391.04  24.244  35.812
 391.54  24.218  35.812
 392.04  24.244  35.812
 392.54  24.192  35.812
 393.04  24.244  35.812
 393.54  24.218  35.812
 394.04  24.218  35.812
 394.54  24.218  35.885
 395.04  24.218  35.738
 395.54  24.218  35.812
 396.04  24.270  35.885
 396.54  24.218  35.885
 397.04  24.218  35.885
 397.54  24.192  35.812
 398.04  24.218  35.958
 398.54  24.218  35.885
 399.04  24.218  35.812
 399.54  24.218  35.812
 400.04  24.218  35.812
 400.54  24.192  35.885
 401.04  24.218  35.885
 401.54  24.192  35.885
 402.04  24.218  35.885
 402.54  24.192  35.885
 403.04  24.218  35.958
 403.54  24.192  35.885
 404.04  24.218  35.958
 404.54  24.218  35.885
 405.04  24.218  35.885
 405.54  24.192  35.885
 406.04  24.192  35.958
 406.54  24.218  35.885
 407.04  24.192  35.958
 407.54  24.218  35.958
 408.04  24.192  35.885
 408.54  24.166  35.958
 409.04  24.192  35.958
 409.54  24.218  35.885
 410.04  24.192  35.958
 410.54  24.218  35.958
 411.04  24.192  35.958
 411.54  24.192  36.032
 412.04  24.192  35.958
 412.54  24.218  36.032
 413.04  24.166  35.958
 413.54  24.192  35.885
 414.04  24.192  35.958
 414.54  24.218  36.032
 415.04  24.244  35.958
 415.54  24.166  35.958
 416.04  24.166  35.885
 416.54  24.192  35.958
 417.04  24.218  36.178
 417.54  24.218  35.958
 418.04  24.192  36.032
 418.54  24.166  35.958
 419.04  24.218  36.032
 419.54  24.192  36.032
 420.04  24.192  36.032
 420.54  24.192  36.032
 421.04  24.192  35.958
 421.54  24.218  36.032
 422.04  24.218  35.958
 422.54  24.192  36.032
 423.04  24.218  36.105
 423.54  24.192  36.105
 424.04  24.192  36.032
 424.54  24.192  36.105
 425.04  24.218  36.032
 425.54  24.192  36.105
 426.04  24.218  36.105
 426.54  24.218  36.105
 427.04  24.192  36.105
 427.54  24.166  36.105
 428.04  24.218  36.105
 428.54  24.192  36.105
 429.04  24.218  36.032
 429.54  24.218  36.032
 430.04  24.192  36.105
 430.54  24.192  36.105
 431.04  24.192  36.105
 431.54  24.192  36.105
 432.04  24.192  36.105
 432.54  24.192  36.032
 433.04  24.192  36.178
 433.54  24.192  36.105
 434.04  24.218  36.105
 434.54  24.166  36.105
 435.04  24.192  36.105
 435.54  24.192  36.105
 436.04  24.218  36.105
 436.54  24.192  36.178
 437.04  24.192  36.105
 437.54  24.218  36.178
 438.04  24.218  36.105
 438.54  24.192  36.105
 439.04  24.218  36.105
 439.54  24.270  36.178
 440.04  24.218  36.178
 440.54  24.166  36.178
 441.04  24.192  36.178
 441.54  24.192  36.251
 442.04  24.192  36.178
 442.54  24.192  36.178
 443.04  24.192  36.178
 443.54  24.192  36.178
 444.04  24.192  36.178
 444.54  24.192  36.178
 445.04  24.192  36.251
 445.54  24.192  36.178
 446.04  24.166  36.178
 446.54  24.192  36.178
 447.04  24.192  36.178
 447.54  24.192  36.178
 448.04  24.166  36.251
 448.54  24.244  36.251
 449.04  24.192  36.251
 449.54  24.244  36.251
 450.04  24.166  36.178
 450.54  24.192  36.251
 451.04  24.192  36.178
 451.54  24.218  36.325
 452.04  24.218  36.178
 452.54  24.192  36.251
 453.04  24.218  36.251
 453.54  24.192  36.251
 454.04  24.192  36.251
 454.54  24.218  36.325
 455.04  24.218  36.251
 455.54  24.218  36.178
 456.04  24.244  36.251
 456.54  24.218  36.325
 457.04  24.166  36.325
 457.54  24.296  36.325
 458.04  24.218  36.325
 458.54  24.166  36.325
 459.04  24.166  36.325
 459.54  24.192  36.251
 460.04  24.192  36.398
 460.54  24.218  36.325
 461.04  24.140  36.325
 461.54  24.192  36.545
 462.04  24.218  36.398
 462.54  24.218  36.251
 463.04  24.192  36.325
 463.54  24.192  36.325
 464.04  24.192  36.325
 464.54  24.244  36.325
 465.04  24.192  36.325
 465.54  24.192  36.325
 466.04  24.192  36.325
 466.54  24.192  36.251
 467.04  24.192  36.325
 467.54  24.192  36.398
 468.04  24.192  36.325
 468.54  24.192  36.325
 469.04  24.166  36.325
 469.54  24.192  36.325
 470.04  24.218  36.398
 470.54  24.192  36.398
 471.04  24.192  36.251
 471.54  24.166  36.398
 472.04  24.192  36.325
 472.54  24.192  36.325
 473.04  24.192  36.398
 473.54  24.192  36.398
 474.04  24.140  36.398
 474.54  24.192  36.398
 475.04  24.218  36.398
 475.54  24.166  36.325
 476.04  24.192  36.398
 476.54  24.192  36.398
 477.04  24.192  36.398
 477.54  24.192  36.471
 478.04  24.322  36.471
 478.54  24.218  36.471
 479.04  24.192  36.471
 479.54  24.192  36.398
 480.04  24.192  36.471
 480.54  24.166  36.471
 481.04  24.192  36.398
 481.54  24.113  36.471
 482.04  24.166  36.471
 482.54  24.218  36.471
 483.04  24.192  36.471
 483.54  24.140  36.398
 484.04  24.192  36.471
 484.54  24.192  36.471
 485.04  24.166  36.545
 485.54  24.166  36.471
 486.04  24.244  36.545
 486.54  24.218  36.471
 487.04  24.192  36.545
 487.54  24.192  36.545
 488.04  24.166  36.471
 488.54  24.218  36.398
 489.04  24.192  36.545
 489.54  24.166  36.545
 490.04  24.192  36.545
 490.54  24.166  36.471
 491.04  24.218  36.471
 491.54  24.192  36.618
 492.04  24.192  36.545
 492.54  24.192  36.545
 493.04  24.192  36.545
 493.54  24.166  36.618
 494.04  24.166  36.545
 494.54  24.218  36.765
 495.04  24.192  36.545
 495.54  24.218  36.545
 496.04  24.192  36.545
 496.54  24.218  36.618
 497.04  24.192  36.618
 497.54  24.166  36.545
 498.04  24.166  36.471
 498.54  24.192  36.545
 499.04  24.192  36.545
 499.54  24.166  36.545
 500.04  24.218  36.545
 500.55  24.192  36.545
 501.05  24.166  36.545
 501.55  24.192  36.618
 502.05  24.192  36.545
 502.55  24.166  36.545
 503.05  24.218  36.545
 503.55  24.244  36.618
 504.05  24.192  36.691
 504.55  24.192  36.618
 505.05  24.218  36.618
 505.55  24.166  36.618
 506.05  24.192  36.691
 506.55  24.166  36.618
 507.05  24.218  36.618
 507.55  24.192  36.618
 508.05  24.192  36.618
 508.55  24.218  36.691
 509.05  24.192  36.618
 509.55  24.218  36.618
 510.05  24.192  36.618
 510.55  24.192  36.618
 511.05  24.192  36.618
 511.55  24.218  36.545
 512.05  24.192  36.618
 512.55  24.218  36.765
 513.05  24.192  36.691
 513.55  24.192  36.691
 514.05  24.218  36.765
 514.55  24.218  36.691
 515.05  24.166  36.618
 515.55  24.166  36.765
 516.05  24.192  36.691
 516.55  24.218  36.691
 517.05  24.244  36.691
 517.55  24.192  36.691
 518.05  24.192  36.545
 518.55  24.192  36.765
 519.05  24.218  36.691
 519.55  24.192  36.691
 520.05  24.218  36.691
 520.55  24.192  36.691
 521.05  24.192  36.691
 521.55  24.192  36.618
 522.05  24.192  36.765
 522.55  24.192  36.691
 523.05  24.244  36.765
 523.55  24.192  36.765
 524.05  24.244  36.618
 524.55  24.166  36.618
 525.05  24.166  36.765
 525.55  24.192  36.691
 526.05  24.192  36.691
 526.55  24.192  36.691
 527.05  24.192  36.838
 527.55  24.218  36.765
 528.05  24.192  36.691
 528.55  24.166  36.618
 529.05  24.218  36.691
 529.55  24.192  36.765
 530.05  24.192  36.618
 530.55  24.166  36.765
 531.05  24.166  36.765
 531.55  24.192  36.765
 532.05  24.166  36.765
 532.55  24.192  36.765
 533.05  24.192  36.838
 533.55  24.166  36.765
 534.05  24.192  36.765
 534.55  24.166  36.691
 535.05  24.218  36.765
 535.55  24.166  36.765
 536.05  24.140  36.765
 536.55  24.218  36.691
 537.05  24.166  36.838
 537.55  24.192  36.765
 538.05  24.192  36.838
 538.55  24.166  36.838
 539.05  24.192  36.765
 539.55  24.166  36.838
 540.05  24.218  36.838
 540.55  24.192  36.911
 541.05  24.140  36.765
 541.55  24.218  36.985
 542.05  24.244  36.838
 542.55  24.192  36.838
 543.05  24.166  36.691
 543.55  24.166  36.838
 544.05  24.192  36.838
 544.55  24.166  36.838
 545.05  24.192  36.911
 545.55  24.270  36.911
 546.05  24.192  36.838
 546.55  24.166  36.838
 547.05  24.192  36.911
 547.55  24.192  36.838
 548.05  24.218  36.911
 548.55  24.166  36.911
 549.05  24.166  36.911
 549.55  24.166  36.838
 550.05  24.166  36.838
 550.55  24.218  36.765
 551.05  24.166  36.911
 551.55  24.218  36.838
 552.05  24.192  36.911
 552.55  24.166  36.985
 553.05  24.192  36.838
 553.55  24.192  36.838
 554.05  24.192  36.985
 554.55  24.218  36.911
 555.05  24.218  36.985
 555.55  24.166  36.838
 556.05  24.192  36.911
 556.55  24.192  36.985
 557.05  24.166  36.911
 557.55  24.166  36.838
 558.05  24.192  36.985
 558.55  24.192  37.058
 559.05  24.166  36.911
 559.55  24.166  36.838
 560.05  24.166  36.911
 560.55  24.140  36.985
 561.05  24.192  36.911
 561.55  24.218  36.985
 562.05  24.192  36.838
 562.55  24.166  36.911
 563.05  24.166  36.985
 563.55  24.166  36.911
 564.05  24.192  36.985
 564.55  24.192  36.985
 565.05  24.166  36.911
 565.55  24.192  36.985
 566.05  24.166  36.985
 566.55  24.166  36.911
 567.05  24.166  36.985
 567.55  24.140  36.985
 568.05  24.218  36.911
 568.55  24.166  36.985
 569.05  24.192  37.058
 569.55  24.192  36.911
 570.05  24.192  36.911
 570.55  24.218  37.058
 571.05  24.218  36.911
 571.55  24.218  36.985
 572.05  24.192  36.985
 572.55  24.192  36.985
 573.05  24.192  36.985
 573.55  24.192  36.985
 574.05  24.192  36.985
 574.55  24.192  36.985
 575.05  24.166  36.985
 575.55  24.192  36.985
 576.05  24.192  36.985
 576.55  24.140  37.058
 577.05  24.192  37.058
 577.55  24.166  36.985
 578.05  24.218  37.058
 578.55  24.192  37.058
 579.05  24.192  36.985
 579.55  24.192  37.131
 580.05  24.192  37.058
 580.55  24.218  36.985
 581.05  24.192  36.985
 581.55  24.166  37.205
 582.05  24.140  37.058
 582.55  24.218  37.058
 583.05  24.192  37.058
 583.55  24.192  37.058
 584.05  24.218  37.058
 584.55  24.192  37.058
 585.05  24.166  37.131
 585.55  24.192  37.058
 586.05  24.218  36.985
 586.55  24.192  37.058
 587.05  24.192  37.058
 587.55  24.218  37.131
 588.05  24.218  37.058
 588.55  24.218  37.058
 589.05  24.270  37.058
 589.55  24.166  37.131
 590.05  24.192  37.131
 590.55  24.166  37.058
 591.05  24.166  37.058
 591.55  24.192  37.205
 592.05  24.192  37.131
 592.55  24.166  37.058
 593.05  24.192  37.131
 593.55  24.192  37.131
 594.05  24.166  37.131
 594.55  24.192  37.058
 595.05  24.192  37.205
 595.55  24.192  37.131
 596.05  24.218  37.131
 596.55  24.192  37.131
 597.05  24.192  37.205
 597.55  24.192  37.131
 598.05  24.192  37.058
 598.55  24.166  37.131
 599.05  24.192  37.131
 599.55  24.192  37.131
 600.05  24.192  37.131
 600.55  24.140  37.058
 601.05  24.192  37.278
 601.55  24.218  37.205
 602.05  24.244  37.131
 602.55  24.192  37.205
 603.05  24.218  37.131
 603.55  24.166  37.131
 604.05  24.192  37.131
 604.55  24.166  37.131
 605.05  24.140  37.205
 605.55  24.192  37.205
 606.05  24.166  37.058
 606.55  24.192  37.131
 607.05  24.140  37.205
 607.55  24.192  37.131
 608.05  24.192  37.278
 608.55  24.140  37.131
 609.05  24.218  37.131
 609.55  24.140  37.205
 610.05  24.192  37.205
 610.55  24.192  37.131
 611.05  24.218  37.205
 611.55  24.166  37.205
 612.05  24.166  37.278
 612.55  24.192  37.205
 613.05  24.192  37.205
 613.55  24.166  37.131
 614.05  24.166  37.205
 614.55  24.192  37.205
 615.05  24.166  37.278
 615.55  24.192  37.205
 616.05  24.192  37.205
 616.55  24.192  37.278
 617.05  24.140  37.205
 617.55  24.192  37.205
 618.05  24.166  37.205
 618.55  24.166  37.205
 619.05  24.192  37.205
 619.55  24.166  37.278
 620.05  24.192  37.278
 620.55  24.166  37.278
 621.05  24.166  37.278
 621.55  24.192  37.205
 622.05  24.192  37.278
 622.55  24.192  37.205
 623.05  24.166  37.278
 623.55  24.192  37.205
 624.05  24.166  37.278
 624.56  24.166  37.278
 625.06  24.166  37.278
 625.56  24.166  37.278
 626.06  24.166  37.205
 626.56  24.192  37.351
 627.06  24.166  37.278
 627.56  24.166  37.278
 628.06  24.192  37.278
 628.56  24.166  37.351
 629.06  24.166  37.205
 629.56  24.192  37.278
 630.06  24.166  37.278
 630.56  24.192  37.278
 631.06  24.166  37.278
 631.56  24.218  37.351
 632.06  24.166  37.205
 632.56  24.192  37.278
 633.06  24.192  37.278
 633.56  24.166  37.351
 634.06  24.166  37.205
 634.56  24.166  37.205
 635.06  24.192  37.351
 635.56  24.192  37.278
 636.06  24.166  37.351
 636.56  24.166  37.351
 637.06  24.166  37.278
 637.56  24.166  37.351
 638.06  24.166  37.351
 638.56  24.140  37.278
 639.06  24.166  37.351
 639.56  24.192  37.278
 640.06  24.166  37.278
 640.56  24.192  37.278
 641.06  24.192  37.351
 641.56  24.140  37.351
 642.06  24.166  37.351
 642.56  24.140  37.351
 643.06  24.166  37.278
 643.56  24.166  37.278
 644.06  24.166  37.351
 644.56  24.140  37.351
 645.06  24.087  37.351
 645.56  24.192  37.424
 646.06  24.140  37.351
 646.56  24.166  37.351
 647.06  24.166  37.351
 647.56  24.166  37.351
 648.06  24.166  37.278
 648.56  24.166  37.351
 649.06  24.166  37.351
 649.56  24.166  37.351
 650.06  24.166  37.351
 650.56  24.166  37.351
 651.06  24.192  37.278
 651.56  24.166  37.351
 652.06  24.192  37.351
 652.56  24.166  37.278
 653.06  24.166  37.351
 653.56  24.192  37.424
 654.06  24.140  37.351
 654.56  24.166  37.424
 655.06  24.140  37.424
 655.56  24.113  37.351
 656.06  24.166  37.424
 656.56  24.166  37.351
 657.06  24.192  37.351
 657.56  24.166  37.424
 658.06  24.218  37.351
 658.56  24.166  37.424
 659.06  24.140  37.424
 659.56  24.192  37.351
 660.06  24.192  37.424
 660.56  24.166  37.424
 661.06  24.166  37.424
 661.56  24.192  37.498
 662.06  24.166  37.351
 662.56  24.192  37.424
 663.06  24.166  37.424
 663.56  24.140  37.424
 664.06  24.166  37.498
 664.56  24.192  37.424
 665.06  24.166  37.424
 665.56  24.166  37.351
 666.06  24.113  37.424
 666.56  24.192  37.424
 667.06  24.166  37.498
 667.56  24.192  37.424
 668.06  24.192  37.424
 668.56  24.166  37.351
 669.06  24.166  37.424
 669.56  24.140  37.424
 670.06  24.166  37.351
 670.56  24.218  37.424
 671.06  24.192  37.424
 671.56  24.166  37.424
 672.06  24.140  37.424
 672.56  24.166  37.424
 673.06  24.218  37.424
 673.56  24.244  37.498
 674.06  24.140  37.498
 674.56  24.192  37.424
 675.06  24.140  37.498
 675.56  24.140  37.498
 676.06  24.166  37.424
 676.56  24.166  37.424
 677.06  24.166  37.351
 677.56  24.166  37.498
 678.06  24.166  37.351
 678.56  24.166  37.424
 679.06  24.166  37.498
 679.56  24.140  37.498
 680.06  24.218  37.424
 680.56  24.140  37.424
 681.06  24.192  37.498
 681.56  24.192  37.498
 682.06  24.192  37.498
 682.56  24.166  37.644
 683.06  24.192  37.571
 683.56  24.166  37.498
 684.06  24.166  37.498
 684.56  24.140  37.498
 685.06  24.140  37.498
 685.56  24.140  37.424
 686.06  24.166  37.498
 686.56  24.192  37.571
 687.06  24.166  37.571
 687.56  24.192  37.571
 688.06  24.166  37.571
 688.56  24.166  37.644
 689.06  24.166  37.571
 689.56  24.166  37.571
 690.06  24.192  37.571
 690.56  24.166  37.571
 691.06  24.192  37.571
 691.56  24.166  37.571
 692.06  24.192  37.498
 692.56  24.166  37.571
 693.06  24.166  37.571
 693.56  24.218  37.571
 694.06  24.192  37.644
 694.56  24.166  37.571
 695.06  24.218  37.498
 695.56  24.166  37.644
 696.06  24.192  37.571
 696.56  24.166  37.498
 697.06  24.166  37.571
 697.56  24.166  37.571
 698.06  24.166  37.571
 698.56  24.192  37.571
 699.06  24.166  37.571
 699.56  24.166  37.571
 700.06  24.166  37.571
 700.56  24.166  37.571
 701.06  24.166  37.571
 701.56  24.166  37.644
 702.06  24.166  37.571
 702.56  24.140  37.571
 703.06  24.166  37.718
 703.56  24.192  37.644
 704.06  24.218  37.644
 704.56  24.192  37.718
 705.06  24.192  37.791
 705.56  24.192  37.644
 706.06  24.166  37.571
 706.56  24.244  37.644
 707.06  24.192  37.571
 707.56  24.166  37.571
 708.06  24.192  37.644
 708.56  24.192  37.644
 709.06  24.166  37.571
 709.56  24.192  37.571
 710.06  24.192  37.644
 710.56  24.192  37.644
 711.06  24.192  37.718
 711.56  24.140  37.644
 712.06  24.192  37.571
 712.56  24.192  37.571
 713.06  24.166  37.571
 713.56  24.192  37.718
 714.06  24.166  37.644
 714.56  24.218  37.718
 715.06  24.166  37.718
 715.56  24.192  37.644
 716.06  24.166  37.644
 716.56  24.166  37.644
 717.06  24.192  37.644
 717.56  24.140  37.644
 718.06  24.192  37.644
 718.56  24.192  37.644
 719.06  24.166  37.718
 719.56  24.166  37.718
 720.06  24.166  37.571
 720.56  24.192  37.864
 721.06  24.166  37.718
 721.56  24.192  37.571
 722.06  24.166  37.644
 722.56  24.192  37.644
 723.06  24.166  37.644
 723.56  24.166  37.718
 724.06  24.192  37.644
 724.56  24.192  37.718
 725.06  24.166  37.571
 725.56  24.166  37.644
 726.06  24.192  37.644
 726.57  24.166  37.644
 727.07  24.166  37.718
 727.57  24.192  37.718
 728.07  24.166  37.718
 728.57  24.166  37.644
 729.07  24.192  37.718
 729.57  24.192  37.718
 730.07  24.166  37.718
 730.57  24.140  37.718
 731.07  24.166  37.718
 731.57  24.192  37.718
 732.07  24.192  37.718
 732.57  24.166  37.718
 733.07  24.192  37.571
 733.57  24.140  37.718
 734.07  24.192  37.718
 734.57  24.192  37.718
 735.07  24.218  37.718
 735.57  24.166  37.791
 736.07  24.192  37.718
 736.57  24.192  37.718
 737.07  24.140  37.791
 737.57  24.166  37.718
 738.07  24.218  37.718
 738.57  24.192  37.718
 739.07  24.192  37.791
 739.57  24.192  37.718
 740.07  24.166  37.718
 740.57  24.192  37.791
 741.07  24.192  37.791
 741.57  24.192  37.791
 742.07  24.166  37.718
 742.57  24.192  37.718
 743.07  24.166  37.791
 743.57  24.192  37.791
 744.07  24.166  37.791
 744.57  24.218  37.791
 745.07  24.244  37.718
 745.57  24.166  37.718
 746.07  24.166  37.864
 746.57  24.166  37.791
 747.07  24.192  37.791
 747.57  24.192  37.864
 748.07  24.192  37.718
 748.57  24.192  37.864
 749.07  24.192  37.791
 749.57  24.192  37.791
 750.07  24.192  37.791
 750.57  24.192  37.718
 751.07  24.192  37.791
 751.57  24.244  37.791
 752.07  24.192  37.791
 752.57  24.166  38.011
 753.07  24.192  37.864
 753.57  24.166  37.791
 754.07  24.166  37.791
 754.57  24.192  37.864
 755.07  24.192  37.791
 755.57  24.166  37.864
 756.07  24.192  37.791
 756.57  24.192  37.791
 757.07  24.218  37.864
 757.57  24.192  37.791
 758.07  24.166  37.791
 758.57  24.166  37.864
 759.07  24.192  37.791
 759.57  24.166  37.864
 760.07  24.192  37.938
 760.57  24.166  37.864
 761.07  24.192  37.864
 761.57  24.140  37.864
 762.07  24.218  37.864
 762.57  24.166  37.938
 763.07  24.192  37.791
 763.57  24.166  37.791
 764.07  24.166  37.791
 764.57  24.192  37.791
 765.07  24.166  37.791
 765.57  24.192  37.791
 766.07  24.192  37.791
 766.57  24.192  37.791
 767.07  24.192  37.864
 767.57  24.166  37.864
 768.07  24.166  37.938
 768.57  24.166  37.938
 769.07  24.218  37.791
 769.57  24.166  37.791
 770.07  24.140  37.864
 770.57  24.166  37.864
 771.07  24.166  37.864
 771.57  24.166  37.864
 772.07  24.192  37.938
 772.57  24.192  37.864
 773.07  24.166  37.864
 773.57  24.166  37.864
 774.07  24.192  37.938
 774.57  24.192  38.011
 775.07  24.166  37.791
 775.57  24.140  37.864
 776.07  24.166  37.938
 776.57  24.218  37.864
 777.07  24.192  37.938
 777.57  24.166  37.938
 778.07  24.166  37.864
 778.57  24.192  37.864
 779.07  24.166  37.864
 779.57  24.192  37.938
 780.07  24.218  37.938
 780.57  24.140  37.938
 781.07  24.166  37.938
 781.57  24.192  37.864
 782.07  24.192  37.938
 782.57  24.166  37.938
 783.07  24.192  37.864
 783.57  24.192  37.938
 784.07  24.166  37.938
 784.57  24.166  37.938
 785.07  24.192  37.938
 785.57  24.218  37.938
 786.07  24.166  37.791
 786.57  24.192  37.938
 787.07  24.192  37.864
 787.57  24.218  37.938
 788.07  24.166  38.011
 788.57  24.192  37.938
 789.07  24.218  37.938
 789.57  24.166  38.011
 790.07  24.166  37.938
 790.57  24.166  37.938
 791.07  24.166  38.011
 791.57  24.192  37.938
 792.07  24.192  37.938
 792.57  24.166  37.864
 793.07  24.192  37.864
 793.57  24.192  37.938
 794.07  24.166  37.938
 794.57  24.192  37.938
 795.07  24.140  37.938
 795.57  24.166  38.011
 796.07  24.192  37.864
 796.57  24.192  37.938
 797.07  24.192  38.011
 797.57  24.192  37.864
 798.07  24.166  37.938
 798.57  24.166  38.011
 799.07  24.166  37.938
 799.57  24.166  37.938
 800.07  24.166  37.938
 800.57  24.166  38.011
 801.07  24.166  37.938
 801.57  24.192  37.938
 802.07  24.166  38.084
 802.57  24.192  37.938
 803.07  24.166  38.011
 803.57  24.218  38.011
 804.07  24.166  37.938
 804.57  24.166  38.011
 805.07  24.192  38.231
 805.57  24.166  37.938
 806.07  24.192  38.011
 806.57  24.192  38.011
 807.07  24.192  38.011
 807.57  24.192  38.011
 808.07  24.166  37.938
 808.57  24.192  37.938
 809.07  24.192  38.011
 809.57  24.192  38.011
 810.07  24.192  38.011
 810.57  24.140  38.011
 811.07  24.192  38.011
 811.57  24.244  38.011
 812.07  24.192  38.011
 812.57  24.192  38.084
 813.07  24.166  38.011
 813.57  24.166  38.011
 814.07  24.192  38.011
 814.57  24.192  38.011
 815.07  24.192  38.011
 815.57  24.166  38.011
 816.07  24.166  38.011
 816.57  24.140  38.011
 817.07  24.166  38.011
 817.57  24.166  38.011
 818.07  24.192  38.011
 818.57  24.192  38.011
 819.07  24.166  38.084
 819.57  24.166  38.084
 820.07  24.218  38.011
 820.57  24.192  38.011
 821.07  24.218  38.011
 821.57  24.166  38.011
 822.07  24.166  38.011
 822.57  24.192  38.011
 823.07  24.166  38.084
 823.57  24.166  38.084
 824.07  24.218  38.158
 824.57  24.218  38.084
 825.07  24.244  38.084
 825.57  24.192  38.084
 826.07  24.192  38.084
 826.57  24.192  38.084
 827.07  24.192  38.011
 827.57  24.192  38.084
 828.07  24.192  38.084
 828.57  24.192  38.084
 829.07  24.192  38.084
 829.57  24.218  38.084
 830.07  24.192  38.084
 830.57  24.218  38.011
 831.07  24.192  38.084
 831.57  24.192  38.084
 832.07  24.166  38.084
 832.57  24.192  38.084
 833.07  24.192  38.158
 833.57  24.192  38.084
 834.07  24.192  38.158
 834.57  24.192  38.084
 835.07  24.166  38.084
 835.57  24.192  38.158
 836.07  24.218  38.084
 836.57  24.192  38.084
 837.07  24.166  38.084
 837.57  24.166  38.084
 838.07  24.166  38.158
 838.57  24.166  38.084
 839.07  24.166  38.084
 839.58  24.166  38.084
 840.08  24.192  38.158
 840.58  24.166  38.158
 841.08  24.140  38.084
 841.58  24.192  38.084
 842.08  24.166  38.084
 842.58  24.166  38.084
 843.08  24.192  38.084
 843.58  24.166  38.158
 844.08  24.192  38.158
 844.58  24.166  38.084
 845.08  24.166  38.084
 845.58  24.192  38.084
 846.08  24.166  38.084
 846.58  24.166  38.084
 847.08  24.192  38.084
 847.58  24.166  38.084
 848.08  24.218  38.158
 848.58  24.218  38.158
 849.08  24.192  38.011
 849.58  24.166  38.231
 850.08  24.192  38.158
 850.58  24.192  38.304
 851.08  24.166  38.084
 851.58  24.166  38.158
 852.08  24.166  38.158
 852.58  24.192  38.158
 853.08  24.166  38.084
 853.58  24.166  38.158
 854.08  24.218  38.158
 854.58  24.166  38.158
 855.08  24.192  38.158
 855.58  24.192  38.084
 856.08  24.166  38.158
 856.58  24.218  38.158
 857.08  24.192  38.158
 857.58  24.192  38.158
 858.08  24.192  38.158
 858.58  24.166  38.158
 859.08  24.166  38.158
 859.58  24.218  38.231
 860.08  24.218  38.158
 860.58  24.244  38.158
 861.08  24.218  38.158
 861.58  24.192  38.231
 862.08  24.218  38.158
 862.58  24.192  38.158
 863.08  24.192  38.231
 863.58  24.192  38.158
 864.08  24.192  38.158
 864.58  24.192  38.158
 865.08  24.192  38.231
 865.58  24.192  38.231
 866.08  24.192  38.158
 866.58  24.140  38.304
 867.08  24.140  38.158
 867.58  24.192  38.231
 868.08  24.166  38.231
 868.58  24.192  38.158
 869.08  24.192  38.231
 869.58  24.218  38.231
 870.08  24.218  38.451
 870.58  24.192  38.158
 871.08  24.166  38.231
 871.58  24.192  38.231
 872.08  24.166  38.231
 872.58  24.192  38.231
 873.08  24.192  38.231
 873.58  24.192  38.231
 874.08  24.192  38.231
 874.58  24.166  38.231
 875.08  24.192  38.231
 875.58  24.244  38.304
 876.08  24.192  38.231
 876.58  24.192  38.158
 877.08  24.218  38.231
 877.58  24.218  38.158
 878.08  24.166  38.304
 878.58  24.192  38.231
 879.08  24.166  38.231
 879.58  24.166  38.158
 880.08  24.218  38.231
 880.58  24.166  38.304
 881.08  24.166  38.231
 881.58  24.192  38.158
 882.08  24.192  38.158
 882.58  24.192  38.231
 883.08  24.192  38.231
 883.58  24.166  38.304
 884.08  24.166  38.231
 884.58  24.166  38.304
 885.08  24.166  38.231
 885.58  24.192  38.231
 886.08  24.218  38.231
 886.58  24.166  38.231
 887.08  24.166  38.231
 887.58  24.192  38.231
 888.08  24.166  38.304
 888.58  24.244  38.231
 889.08  24.192  38.231
 889.58  24.192  38.304
 890.08  24.192  38.231
 890.58  24.192  38.231
 891.08  24.192  38.231
 891.58  24.192  38.231
 892.08  24.192  38.304
 892.58  24.218  38.231
 893.08  24.166  38.378
 893.58  24.140  38.304
 894.08  24.218  38.231
 894.58  24.192  38.231
 895.08  24.192  38.231
 895.58  24.218  38.304
 896.08  24.140  38.304
 896.58  24.218  38.231
 897.08  24.166  38.378
 897.58  24.140  38.304
 898.08  24.192  38.304
 898.58  24.192  38.378
 899.08  24.192  38.378
 899.58  24.192  38.304
 900.08  24.244  38.304
 900.58  24.166  38.378
 901.08  24.192  38.231
 901.58  24.192  38.304
 902.08  24.192  38.451
 902.58  24.218  38.304
 903.08  24.244  38.231
 903.58  24.192  38.304
 904.08  24.218  38.304
 904.58  24.192  38.304
 905.08  24.244  38.231
 905.58  24.192  38.304
 906.08  24.192  38.378
 906.58  24.192  38.451
 907.08  24.166  38.378
 907.58  24.218  38.378
 908.08  24.166  38.304
 908.58  24.192  38.378
 909.08  24.192  38.304
 909.58  24.192  38.378
 910.08  24.166  38.231
 910.58  24.192  38.231
 911.08  24.166  38.378
 911.58  24.192  38.304
 912.08  24.166  38.304
 912.58  24.192  38.304
 913.08  24.192  38.304
 913.58  24.192  38.304
 914.08  24.192  38.378
 914.58  24.192  38.304
 915.08  24.218  38.378
 915.58  24.192  38.304
 916.08  24.192  38.378
 916.58  24.192  38.378
 917.08  24.218  38.304
 917.58  24.192  38.378
 918.08  24.192  38.378
 918.58  24.218  38.451
 919.08  24.192  38.378
 919.58  24.218  38.451
 920.08  24.192  38.378
 920.58  24.192  38.378
 921.08  24.192  38.378
 921.58  24.192  38.378
 922.08  24.192  38.304
 922.58  24.218  38.378
 923.08  24.218  38.378
 923.58  24.113  38.378
 924.08  24.192  38.378
 924.58  24.218  38.378
 925.08  24.192  38.378
 925.58  24.218  38.378
 926.08  24.218  38.378
 926.58  24.192  38.451
 927.08  24.244  38.378
 927.58  24.192  38.524
 928.08  24.218  38.378
 928.58  24.192  38.378
 929.08  24.218  38.304
 929.58  24.192  38.304
 930.08  24.166  38.451
 930.58  24.218  38.304
 931.08  24.166  38.451
 931.58  24.218  38.378
 932.08  24.218  38.378
 932.58  24.192  38.378
 933.08  24.218  38.378
 933.58  24.192  38.378
 934.08  24.192  38.451
 934.58  24.218  38.378
 935.08  24.192  38.451
 935.58  24.192  38.451
 936.08  24.192  38.378
 936.58  24.166  38.451
 937.08  24.192  38.378
 937.58  24.218  38.451
 938.08  24.218  38.451
 938.58  24.244  38.378
 939.08  24.192  38.231
 939.58  24.218  38.524
 940.08  24.166  38.451
 940.58  24.244  38.378
 941.08  24.140  38.524
 941.58  24.218  38.451
 942.08  24.192  38.378
 942.58  24.166  38.378
 943.08  24.192  38.451
 943.58  24.192  38.451
 944.08  24.218  38.451
 944.58  24.192  38.378
 945.08  24.218  38.451
 945.58  24.166  38.451
 946.08  24.218  38.451
 946.58  24.218  38.304
 947.08  24.192  38.378
 947.58  24.192  38.451
 948.08  24.192  38.451
 948.58  24.166  38.451
 949.08  24.192  38.451
 949.58  24.166  38.524
 950.08  24.192  38.451
 950.58  24.192  38.524
 951.08  24.192  38.451
 951.58  24.218  38.378
 952.08  24.192  38.451
 952.58  24.166  38.524
 953.09  24.192  38.451
 953.59  24.140  38.451
 954.09  24.192  38.451
 954.59  24.192  38.451
 955.09  24.192  38.524
 955.59  24.192  38.451
 956.09  24.218  38.451
 956.59  24.166  38.451
 957.09  24.166  38.524
 957.59  24.218  38.378
 958.09  24.218  38.451
 958.59  24.218  38.524
 959.09  24.192  38.524
 959.59  24.218  38.451
 960.09  24.192  38.451
 960.59  24.166  38.378
 961.09  24.166  38.524
 961.59  24.192  38.451
 962.09  24.218  38.524
 962.59  24.192  38.451
 963.09  24.192  38.451
 963.59  24.192  38.451
 964.09  24.192  38.451
 964.59  24.218  38.451
 965.09  24.166  38.378
 965.59  24.192  38.524
 966.09  24.192  38.304
 966.59  24.218  38.524
 967.09  24.192  38.451
 967.59  24.166  38.451
 968.09  24.192  38.524
 968.59  24.218  38.451
 969.09  24.218  38.524
 969.59  24.192  38.524
 970.09  24.244  38.598
 970.59  24.192  38.451
 971.09  24.218  38.451
 971.59  24.166  38.451
 972.09  24.192  38.524
 972.59  24.218  38.524
 973.09  24.166  38.451
 973.59  24.218  38.451
 974.09  24.192  38.524
 974.59  24.192  38.451
 975.09  24.166  38.524
 975.59  24.192  38.598
 976.09  24.166  38.524
 976.59  24.192  38.524
 977.09  24.192  38.598
 977.59  24.192  38.524
 978.09  24.244  38.524
 978.59  24.192  38.598
 979.09  24.166  38.524
 979.59  24.166  38.524
 980.09  24.192  38.524
 980.59  24.192  38.598
 981.09  24.192  38.451
 981.59  24.218  38.524
 982.09  24.218  38.524
 982.59  24.192  38.524
 983.09  24.140  38.598
 983.59  24.166  38.524
 984.09  24.192  38.451
 984.59  24.218  38.524
 985.09  24.192  38.524
 985.59  24.166  38.451
 986.09  24.192  38.524
 986.59  24.192  38.524
 987.09  24.192  38.524
 987.59  24.218  38.524
 988.09  24.166  38.524
 988.59  24.218  38.598
 989.09  24.244  38.451
 989.59  24.192  38.598
 990.09  24.166  38.598
 990.59  24.192  38.451
 991.09  24.140  38.598
 991.59  24.166  38.524
 992.09  24.166  38.451
 992.59  24.192  38.524
 993.09  24.192  38.524
 993.59  24.218  38.524
 994.09  24.218  38.524
 994.59  24.192  38.378
 995.09  24.192  38.524
 995.59  24.218  38.524
 996.09  24.192  38.598
 996.59  24.192  38.524
 997.09  24.192  38.598
 997.59  24.140  38.598
 998.09  24.192  38.598
 998.59  24.218  38.524
 999.09  24.192  38.598
 999.59  24.218  38.524
1000.09  24.218  38.524
1000.59  24.166  38.524
1001.09  24.218  38.598
1001.59  24.296  38.671
1002.09  24.166  38.598
1002.59  24.192  38.598
1003.09  24.192  38.598
1003.59  24.192  38.451
1004.09  24.218  38.744
1004.59  24.192  38.598
1005.09  24.166  38.598
1005.59  24.166  38.524
1006.09  24.192  38.524
1006.59  24.192  38.524
1007.09  24.140  38.524
1007.59  24.166  38.598
1008.09  24.192  38.524
1008.59  24.166  38.524
1009.09  24.218  38.598
1009.59  24.166  38.598
1010.09  24.192  38.524
1010.59  24.192  38.524
1011.09  24.166  38.524
1011.59  24.166  38.598
1012.09  24.192  38.598
1012.59  24.166  38.451
1013.09  24.166  38.598
1013.59  24.166  38.524
1014.09  24.192  38.598
1014.59  24.192  38.598
1015.09  24.192  38.598
1015.59  24.218  38.598
1016.09  24.218  38.598
1016.59  24.218  38.598
1017.09  24.192  38.598
1017.59  24.192  38.598
1018.09  24.192  38.598
1018.59  24.192  38.598
1019.09  24.192  38.598
1019.59  24.244  38.598
1020.09  24.244  38.671
1020.59  24.218  38.598
1021.09  24.166  38.671
1021.59  24.192  38.671
1022.09  24.218  38.671
1022.59  24.218  38.598
1023.09  24.192  38.671
1023.59  24.192  38.598
1024.09  24.192  38.524
1024.59  24.192  38.671
1025.09  24.218  38.598
1025.59  24.166  38.524
1026.09  24.218  38.744
1026.59  24.166  38.598
1027.09  24.192  38.671
1027.59  24.192  38.598
1028.09  24.218  38.598
1028.59  24.192  38.671
1029.09  24.218  38.671
1029.59  24.192  38.671
1030.09  24.192  38.671
1030.59  24.192  38.598
1031.09  24.192  38.598
1031.59  24.218  38.671
1032.09  24.218  38.598
1032.59  24.192  38.744
1033.09  24.192  38.671
1033.59  24.218  38.671
1034.09  24.218  38.671
1034.59  24.192  38.598
1035.09  24.218  38.598
1035.59  24.218  38.451
1036.09  24.192  38.671
1036.59  24.218  38.671
1037.09  24.166  38.671
1037.59  24.192  38.671
1038.09  24.218  38.598
1038.59  24.218  38.671
1039.09  24.192  38.671
1039.59  24.192  38.671
1040.09  24.244  38.671
1040.59  24.218  38.671
1041.09  24.166  38.671
1041.59  24.192  38.671
1042.09  24.218  38.671
1042.59  24.218  38.744
1043.09  24.218  38.598
1043.59  24.218  38.671
1044.09  24.218  38.671
1044.59  24.218  38.671
1045.09  24.192  38.671
1045.59  24.218  38.744
1046.09  24.192  38.671
1046.59  24.218  38.671
1047.09  24.192  38.671
1047.59  24.218  38.598
1048.09  24.218  38.744
1048.59  24.218  38.744
1049.09  24.192  38.671
1049.59  24.192  38.744
1050.09  24.166  38.744
1050.59  24.166  38.671
1051.09  24.218  38.744
1051.59  24.218  38.744
1052.09  24.192  38.671
1052.59  24.192  38.671
1053.09  24.192  38.744
1053.59  24.192  38.744
1054.09  24.218  38.744
1054.59  24.218  38.744
1055.09  24.218  38.744
1055.59  24.192  38.744
1056.09  24.218  38.671
1056.59  24.244  38.671
1057.09  24.218  38.671
1057.59  24.218  38.817
1058.09  24.218  38.671
1058.59  24.218  38.744
1059.09  24.192  38.744
1059.59  24.244  38.671
1060.09  24.218  38.744
1060.59  24.218  38.671
1061.09  24.192  38.671
1061.59  24.218  38.817
1062.09  24.192  38.744
1062.59  24.218  38.744
1063.09  24.218  38.744
1063.59  24.192  38.671
1064.09  24.218  38.744
1064.59  24.192  38.671
1065.09  24.192  38.817
1065.59  24.192  38.744
1066.10  24.218  38.744
1066.60  24.218  38.744
1067.10  24.166  38.817
1067.60  24.244  38.671
1068.10  24.192  38.744
1068.60  24.218  38.817
1069.10  24.218  38.744
1069.60  24.192  38.744
1070.10  24.218  38.744
1070.60  24.218  38.744
1071.10  24.192  38.817
1071.60  24.218  38.817
1072.10  24.244  38.817
1072.60  24.218  38.671
1073.10  24.218  38.744
1073.60  24.218  38.744
1074.10  24.244  38.744
1074.60  24.218  38.744
1075.10  24.218  38.744
1075.60  24.270  38.744
1076.10  24.218  38.744
1076.60  24.244  38.817
1077.10  24.218  38.817
1077.60  24.218  38.817
1078.10  24.192  38.744
1078.60  24.218  38.964
1079.10  24.218  38.817
1079.60  24.270  38.744
1080.10  24.218  38.817
1080.60  24.218  38.744
1081.10  24.192  38.744
1081.60  24.192  38.744
1082.10  24.244  38.744
1082.60  24.192  38.744
1083.10  24.218  38.817
1083.60  24.244  38.744
1084.10  24.218  38.744
1084.60  24.218  38.744
1085.10  24.192  38.817
1085.60  24.192  38.744
1086.10  24.244  38.744
1086.60  24.218  38.817
1087.10  24.218  38.744
1087.60  24.192  38.817
1088.10  24.192  38.817
1088.60  24.218  38.817
1089.10  24.192  38.744
1089.60  24.218  38.744
1090.10  24.218  38.744
1090.60  24.192  38.817
1091.10  24.192  38.817
1091.60  24.218  38.744
1092.10  24.218  38.891
1092.60  24.218  38.817
1093.10  24.244  38.744
1093.60  24.166  38.744
1094.10  24.218  38.817
1094.60  24.192  38.744
1095.10  24.218  38.744
1095.60  24.192  38.817
1096.10  24.192  38.671
1096.60  24.244  38.744
1097.10  24.218  38.744
1097.60  24.192  38.891
1098.10  24.218  38.744
1098.60  24.192  38.744
1099.10  24.244  38.817
1099.60  24.218  38.744
1100.10  24.244  38.817
1100.60  24.218  38.817
1101.10  24.218  38.744
1101.60  24.192  38.744
1102.10  24.218  38.891
1102.60  24.192  38.817
1103.10  24.218  38.891
1103.60  24.244  38.817
1104.10  24.192  38.817
1104.60  24.192  38.817
1105.10  24.192  38.744
1105.60  24.192  38.817
1106.10  24.192  38.744
1106.60  24.270  38.817
1107.10  24.218  38.891
1107.60  24.218  38.817
1108.10  24.218  38.817
1108.60  24.192  38.891
1109.10  24.192  38.817
1109.60  24.218  38.817
1110.10  24.218  38.817
1110.60  24.218  38.744
1111.10  24.218  38.891
1111.60  24.218  38.891
1112.10  24.192  38.817
1112.60  24.192  38.817
1113.10  24.218  38.744
1113.60  24.218  38.817
1114.10  24.166  38.817
1114.60  24.218  38.891
1115.10  24.218  38.891
1115.60  24.218  38.891
1116.10  24.218  38.891
1116.60  24.192  38.817
1117.10  24.218  38.817
1117.60  24.218  38.817
1118.10  24.218  38.817
1118.60  24.218  38.744
1119.10  24.192  38.817
1119.60  24.270  38.817
1120.10  24.218  38.891
1120.60  24.244  38.817
1121.10  24.192  38.817
1121.60  24.218  38.817
1122.10  24.244  38.891
1122.60  24.192  38.817
1123.10  24.192  38.817
1123.60  24.192  38.891
1124.10  24.218  38.817
1124.60  24.244  38.891
1125.10  24.218  38.817
1125.60  24.166  38.817
1126.10  24.192  38.817
1126.60  24.218  38.817
1127.10  24.218  38.817
1127.60  24.218  38.891
1128.10  24.218  38.817
1128.60  24.218  38.891
1129.10  24.192  38.817
1129.60  24.244  38.891
1130.10  24.192  38.891
1130.60  24.296  38.891
1131.10  24.218  38.891
1131.60  24.218  38.891
1132.10  24.218  38.891
1132.60  24.244  38.891
1133.10  24.192  38.817
1133.60  24.218  38.891
1134.10  24.244  38.891
1134.60  24.218  38.891
1135.10  24.244  38.891
1135.60  24.218  38.891
1136.10  24.192  38.891
1136.60  24.218  38.891
1137.10  24.218  38.891
1137.60  24.244  38.964
1138.10  24.218  38.891
1138.60  24.192  38.964
1139.10  24.218  38.964
1139.60  24.192  38.891
1140.10  24.218  38.891
1140.60  24.244  38.891
1141.10  24.244  38.891
1141.60  24.244  38.891
1142.10  24.192  38.891
1142.60  24.218  38.964
1143.10  24.218  38.817
1143.60  24.218  38.891
1144.10  24.218  38.891
1144.60  24.244  38.964
1145.10  24.192  38.817
1145.60  24.218  38.891
1146.10  24.192  38.964
1146.60  24.218  38.891
1147.10  24.218  39.037
1147.60  24.218  38.817
1148.10  24.218  38.891
1148.60  24.218  38.817
1149.10  24.218  38.891
1149.60  24.192  38.817
1150.10  24.218  38.891
1150.60  24.244  38.891
1151.10  24.244  38.964
1151.60  24.192  38.964
1152.10  24.244  38.891
1152.60  24.192  38.964
1153.10  24.192  38.891
1153.60  24.218  38.964
1154.10  24.218  38.817
1154.60  24.192  38.891
1155.10  24.218  38.964
1155.60  24.218  38.891
1156.10  24.218  38.964
1156.60  24.348  38.964
1157.10  24.218  38.891
1157.60  24.218  38.964
1158.10  24.244  38.964
1158.60  24.218  38.891
1159.10  24.218  39.037
1159.60  24.218  39.037
1160.10  24.218  38.891
1160.60  24.218  38.964
1161.10  24.244  38.891
1161.60  24.218  39.037
1162.10  24.218  38.964
1162.60  24.218  38.964
1163.10  24.192  38.964
1163.60  24.218  38.964
1164.10  24.192  38.964
1164.60  24.270  38.964
1165.10  24.192  39.037
1165.60  24.192  38.964
1166.10  24.218  38.891
1166.60  24.244  38.964
1167.10  24.218  38.964
1167.60  24.244  38.964
1168.10  24.244  38.964
1168.60  24.192  38.964
1169.10  24.244  38.964
1169.60  24.218  38.891
1170.10  24.218  38.964
1170.60  24.244  38.891
1171.10  24.218  39.037
1171.60  24.244  38.891
1172.10  24.218  38.891
1172.60  24.192  38.891
1173.10  24.192  38.964
1173.60  24.244  38.964
1174.10  24.218  38.964
1174.60  24.192  38.964
1175.10  24.218  38.891
1175.60  24.244  38.964
1176.10  24.218  38.891
1176.60  24.218  38.964
1177.10  24.244  38.891
1177.60  24.192  38.964
1178.10  24.244  38.964
1178.60  24.270  38.964
1179.11  24.192  38.964
1179.61  24.218  38.891
1180.11  24.192  38.964
1180.61  24.244  38.964
1181.11  24.244  39.037
1181.61  24.244  38.964
1182.11  24.218  39.037
1182.61  24.244  38.964
1183.11  24.218  38.964
1183.61  24.218  38.964
1184.11  24.218  38.964
1184.61  24.270  38.964
1185.11  24.192  38.964
1185.61  24.218  38.964
1186.11  24.218  38.964
1186.61  24.192  38.964
1187.11  24.166  38.964
1187.61  24.218  38.964
1188.11  24.218  38.964
1188.61  24.218  39.037
1189.11  24.218  39.037
1189.61  24.218  38.964
1190.11  24.218  39.111
1190.61  24.218  38.964
1191.11  24.192  38.964
1191.61  24.218  38.964
1192.11  24.244  38.964
1192.61  24.218  38.964
1193.11  24.166  39.037
1193.61  24.218  39.037
1194.11  24.270  38.964
1194.61  24.218  38.964
1195.11  24.218  38.964
1195.61  24.244  38.964
1196.11  24.218  38.964
1196.61  24.218  39.037
1197.11  24.244  39.037
1197.61  24.244  39.037
1198.11  24.244  39.037
1198.61  24.192  39.037
1199.11  24.166  39.037
1199.61  24.244  38.964
1200.11  24.192  39.037
1200.61  24.218  38.964
1201.11  24.218  39.037
1201.61  24.244  39.111
1202.11  24.244  38.964
1202.61  24.244  39.037
1203.11  24.270  39.037
1203.61  24.244  38.964
1204.11  24.218  39.111
1204.61  24.244  39.037
1205.11  24.244  39.037
1205.61  24.218  39.037
1206.11  24.218  39.111
1206.61  24.218  39.037
1207.11  24.244  39.111
1207.61  24.244  39.037
1208.11  24.218  39.037
1208.61  24.244  38.964
1209.11  24.296  38.964
1209.61  24.270  38.964
1210.11  24.270  39.037
1210.61  24.244  39.111
1211.11  24.244  39.111
1211.61  24.218  39.037
1212.11  24.244  39.037
1212.61  24.218  39.037
1213.11  24.244  39.037
1213.61  24.218  39.257
1214.11  24.244  39.037
1214.61  24.192  39.037
1215.11  24.244  39.037
1215.61  24.270  39.184
1216.11  24.192  39.184
1216.61  24.166  39.037
1217.11  24.244  39.111
1217.61  24.218  39.037
1218.11  24.244  39.037
1218.61  24.244  39.111
1219.11  24.218  39.037
1219.61  24.244  38.964
1220.11  24.270  39.037
1220.61  24.218  38.891
1221.11  24.218  39.037
1221.61  24.244  39.037
1222.11  24.244  39.037
1222.61  24.244  38.964
1223.11  24.218  39.037
1223.61  24.244  39.111
1224.11  24.218  39.037
1224.61  24.244  39.037
1225.11  24.270  39.037
1225.61  24.244  39.111
1226.11  24.244  39.111
1226.61  24.218  39.111
1227.11  24.218  39.037
1227.61  24.244  39.111
1228.11  24.192  39.037
1228.61  24.244  39.111
1229.11  24.322  39.111
1229.61  24.270  39.037
1230.11  24.244  39.111
1230.61  24.244  39.037
1231.11  24.270  39.037
1231.61  24.322  39.111
1232.11  24.218  39.037
1232.61  24.218  39.111
1233.11  24.270  39.111
1233.61  24.244  39.037
1234.11  24.218  39.037
1234.61  24.192  38.964
1235.11  24.218  39.037
1235.61  24.166  39.111
1236.11  24.218  39.037
1236.61  24.218  39.111
1237.11  24.244  39.111
1237.61  24.192  39.111
1238.11  24.192  39.037
1238.61  24.218  39.111
1239.11  24.218  39.037
1239.61  24.218  39.111
1240.11  24.192  39.111
1240.61  24.218  39.037
1241.11  24.296  39.111
1241.61  24.270  39.111
1242.11  24.218  39.111
1242.61  24.192  39.111
1243.11  24.218  39.111
1243.61  24.244  39.184
1244.11  24.218  39.184
1244.61  24.244  39.184
1245.11  24.192  39.037
1245.61  24.244  39.111
1246.11  24.244  39.111
1246.61  24.218  39.111
1247.11  24.244  39.111
1247.61  24.192  39.111
1248.11  24.244  39.111
1248.61  24.244  39.111
1249.11  24.244  39.111
1249.61  24.218  39.111
1250.11  24.244  39.184
1250.61  24.244  39.111
1251.11  24.218  39.037
1251.61  24.270  39.111
1252.11  24.270  39.111
1252.61  24.244  39.184
1253.11  24.296  39.111
1253.61  24.244  39.111
1254.11  24.244  39.111
1254.61  24.244  39.111
1255.11  24.244  39.184
1255.61  24.244  39.184
1256.11  24.244  39.111
1256.61  24.244  39.184
1257.11  24.218  39.184
1257.61  24.270  39.111
1258.11  24.218  39.184
1258.61  24.244  39.111
1259.11  24.218  39.111
1259.61  24.218  39.111
1260.11  24.270  39.111
1260.61  24.244  39.111
1261.11  24.218  39.111
1261.61  24.244  39.111
1262.11  24.218  39.184
1262.61  24.218  39.184
1263.11  24.244  39.184
1263.61  24.218  39.257
1264.11  24.244  39.037
1264.61  24.218  39.111
1265.11  24.244  39.111
1265.61  24.244  39.111
1266.11  24.244  39.111
1266.61  24.244  39.184
1267.11  24.244  39.184
1267.61  24.244  39.257
1268.11  24.244  39.331
1268.61  24.244  39.257
1269.11  24.218  39.111
1269.61  24.296  39.184
1270.11  24.270  39.111
1270.61  24.270  39.111
1271.11  24.244  39.184
1271.61  24.244  39.111
1272.11  24.192  39.184
1272.61  24.244  39.184
1273.11  24.218  39.184
1273.61  24.270  39.184
1274.11  24.218  39.184
1274.61  24.296  39.111
1275.11  24.270  39.111
1275.61  24.218  39.111
1276.11  24.218  39.184
1276.61  24.244  39.257
1277.11  24.244  39.184
1277.61  24.218  39.111
1278.11  24.244  39.257
1278.61  24.270  39.184
1279.11  24.218  39.257
1279.61  24.244  39.037
1280.11  24.270  39.257
1280.61  24.244  39.111
1281.11  24.270  39.184
1281.61  24.192  39.404
1282.11  24.244  39.257
1282.61  24.270  39.257
1283.11  24.218  39.184
1283.61  24.244  39.184
1284.11  24.218  39.184
1284.61  24.244  39.184
1285.11  24.218  39.257
1285.61  24.244  39.257
1286.11  24.244  39.184
1286.61  24.244  39.184
1287.11  24.244  39.111
1287.61  24.218  39.184
1288.11  24.244  39.257
1288.61  24.296  39.184
1289.11  24.218  39.111
1289.61  24.218  39.184
1290.11  24.244  39.184
1290.61  24.244  39.184
1291.11  24.244  39.184
1291.61  24.270  39.184
1292.11  24.218  39.184
1292.62  24.270  39.257
1293.12  24.218  39.184
1293.62  24.270  39.184
1294.12  24.270  39.257
1294.62  24.218  39.257
1295.12  24.270  39.184
1295.62  24.244  39.257
1296.12  24.218  39.257
1296.62  24.244  39.111
1297.12  24.244  39.184
1297.62  24.244  39.184
1298.12  24.270  39.257
1298.62  24.218  39.184
1299.12  24.244  39.111
1299.62  24.218  39.111
1300.12  24.192  39.184
1300.62  24.218  39.184
1301.12  24.218  39.184
1301.62  24.244  39.184
1302.12  24.218  39.184
1302.62  24.244  39.184
1303.12  24.244  39.184
1303.62  24.244  39.184
1304.12  24.244  39.184
1304.62  24.296  39.257
1305.12  24.244  39.404
1305.62  24.270  39.184
1306.12  24.244  39.111
1306.62  24.244  39.184
1307.12  24.218  39.257
1307.62  24.218  39.111
1308.12  24.244  39.257
1308.62  24.244  39.257
1309.12  24.218  39.184
1309.62  24.244  39.184
1310.12  24.244  39.184
1310.62  24.296  39.184
1311.12  24.218  39.257
1311.62  24.218  39.184
1312.12  24.244  39.331
1312.62  24.244  39.184
1313.12  24.192  39.184
1313.62  24.244  39.184
1314.12  24.218  39.184
1314.62  24.270  39.184
1315.12  24.244  39.257
1315.62  24.244  39.111
1316.12  24.296  39.257
1316.62  24.244  39.184
1317.12  24.244  39.184
1317.62  24.192  39.257
1318.12  24.218  39.257
1318.62  24.244  39.184
1319.12  24.218  39.184
1319.62  24.218  39.257
1320.12  24.244  39.257
1320.62  24.270  39.111
1321.12  24.244  39.257
1321.62  24.244  39.257
1322.12  24.244  39.257
1322.62  24.218  39.257
1323.12  24.244  39.257
1323.62  24.218  39.184
1324.12  24.244  39.257
1324.62  24.244  39.257
1325.12  24.218  39.331
1325.62  24.218  39.331
1326.12  24.244  39.184
1326.62  24.244  39.257
1327.12  24.218  39.257
1327.62  24.296  39.257
1328.12  24.244  39.184
1328.62  24.218  39.257
1329.12  24.270  39.404
1329.62  24.244  39.257
1330.12  24.244  39.331
1330.62  24.218  39.257
1331.12  24.244  39.257
1331.62  24.270  39.257
1332.12  24.296  39.257
1332.62  24.244  39.184
1333.12  24.244  39.257
1333.62  24.218  39.257
1334.12  24.244  39.257
1334.62  24.244  39.257
1335.12  24.218  39.257
1335.62  24.244  39.257
1336.12  24.244  39.404
1336.62  24.192  39.257
1337.12  24.218  39.257
1337.62  24.244  39.331
1338.12  24.270  39.257
1338.62  24.270  39.257
1339.12  24.244  39.331
1339.62  24.270  39.184
1340.12  24.244  39.331
1340.62  24.244  39.257
1341.12  24.244  39.257
1341.62  24.270  39.257
1342.12  24.244  39.331
1342.62  24.244  39.257
1343.12  24.244  39.404
1343.62  24.244  39.257
1344.12  24.244  39.257
1344.62  24.244  39.257
1345.12  24.244  39.331
1345.62  24.244  39.331
1346.12  24.270  39.331
1346.62  24.244  39.257
1347.12  24.244  39.331
1347.62  24.270  39.257
1348.12  24.244  39.331
1348.62  24.244  39.331
1349.12  24.270  39.331
1349.62  24.270  39.331
1350.12  24.244  39.331
1350.62  24.244  39.331
1351.12  24.244  39.257
1351.62  24.244  39.331
1352.12  24.218  39.184
1352.62  24.270  39.331
1353.12  24.270  39.257
1353.62  24.244  39.257
1354.12  24.270  39.331
1354.62  24.270  39.331
1355.12  24.244  39.331
1355.62  24.270  39.331
1356.12  24.244  39.404
1356.62  24.218  39.257
1357.12  24.244  39.331
1357.62  24.270  39.257
1358.12  24.218  39.331
1358.62  24.218  39.331
1359.12  24.270  39.331
1359.62  24.244  39.331
1360.12  24.270  39.331
1360.62  24.218  39.331
1361.12  24.244  39.331
1361.62  24.244  39.331
1362.12  24.270  39.404
1362.62  24.244  39.257
1363.12  24.296  39.331
1363.62  24.244  39.257
1364.12  24.244  39.257
1364.62  24.244  39.331
1365.12  24.244  39.331
1365.62  24.244  39.331
1366.12  24.244  39.331
1366.62  24.270  39.331
1367.12  24.244  39.331
1367.62  24.244  39.257
1368.12  24.270  39.331
1368.62  24.322  39.331
1369.12  24.244  39.257
1369.62  24.244  39.331
1370.12  24.218  39.404
1370.62  24.296  39.257
1371.12  24.244  39.331
1371.62  24.218  39.331
1372.12  24.270  39.331
1372.62  24.270  39.331
1373.12  24.244  39.331
1373.62  24.270  39.331
1374.12  24.270  39.331
1374.62  24.270  39.331
1375.12  24.270  39.257
1375.62  24.244  39.331
1376.12  24.244  39.331
1376.62  24.244  39.331
1377.12  24.296  39.331
1377.62  24.244  39.331
1378.12  24.270  39.257
1378.62  24.296  39.331
1379.12  24.244  39.331
1379.62  24.244  39.331
1380.12  24.218  39.331
1380.62  24.244  39.331
1381.12  24.218  39.331
1381.62  24.270  39.257
1382.12  24.244  39.331
1382.62  24.244  39.331
1383.12  24.270  39.331
1383.62  24.296  39.404
1384.12  24.270  39.331
1384.62  24.270  39.331
1385.12  24.244  39.331
1385.62  24.270  39.331
1386.12  24.270  39.331
1386.62  24.348  39.404
1387.12  24.270  39.404
1387.62  24.270  39.404
1388.12  24.270  39.404
1388.62  24.218  39.257
1389.12  24.270  39.404
1389.62  24.244  39.331
1390.12  24.244  39.404
1390.62  24.244  39.331
1391.12  24.244  39.404
1391.62  24.296  39.404
1392.12  24.244  39.477
1392.62  24.270  39.331
1393.12  24.244  39.331
1393.62  24.244  39.404
1394.12  24.296  39.404
1394.62  24.322  39.404
1395.12  24.244  39.404
1395.62  24.270  39.404
1396.12  24.244  39.331
1396.62  24.244  39.404
1397.12  24.270  39.331
1397.62  24.270  39.404
1398.12  24.244  39.404
1398.62  24.244  39.331
1399.12  24.270  39.331
1399.62  24.270  39.404
1400.12  24.218  39.331
1400.62  24.244  39.331
1401.12  24.244  39.331
1401.62  24.296  39.331
1402.12  24.270  39.404
1402.62  24.244  39.257
1403.12  24.244  39.477
1403.62  24.270  39.404
1404.12  24.244  39.624
1404.62  24.296  39.331
1405.12  24.296  39.331
1405.62  24.270  39.331
1406.12  24.244  39.404
1406.62  24.270  39.331
1407.12  24.270  39.404
1407.62  24.270  39.477
1408.12  24.244  39.404
1408.62  24.270  39.404
1409.12  24.244  39.404
1409.62  24.296  39.404
1410.12  24.244  39.404
1410.62  24.270  39.404
1411.12  24.296  39.404
1411.62  24.270  39.404
1412.12  24.270  39.404
1412.62  24.270  39.404
1413.12  24.244  39.404
1413.62  24.270  39.404
1414.12  24.244  39.404
1414.62  24.244  39.404
1415.12  24.296  39.477
1415.62  24.244  39.477
1416.12  24.244  39.404
1416.63  24.270  39.404
1417.13  24.270  39.331
1417.63  24.270  39.477
1418.13  24.270  39.404
1418.63  24.296  39.404
1419.13  24.270  39.404
1419.63  24.244  39.404
1420.13  24.270  39.477
1420.63  24.296  39.404
1421.13  24.296  39.477
1421.63  24.218  39.404
1422.13  24.244  39.404
1422.63  24.244  39.404
1423.13  24.270  39.404
1423.63  24.296  39.404
1424.13  24.244  39.404
1424.63  24.270  39.477
1425.13  24.270  39.404
1425.63  24.270  39.477
1426.13  24.244  39.477
1426.63  24.244  39.477
1427.13  24.270  39.404
1427.63  24.218  39.404
1428.13  24.348  39.477
1428.63  24.270  39.477
1429.13  24.270  39.404
1429.63  24.296  39.331
1430.13  24.270  39.477
1430.63  24.270  39.404
1431.13  24.296  39.404
1431.63  24.244  39.477
1432.13  24.296  39.477
1432.63  24.270  39.477
1433.13  24.270  39.477
1433.63  24.296  39.404
1434.13  24.244  39.404
1434.63  24.244  39.404
1435.13  24.296  39.551
1435.63  24.270  39.331
1436.13  24.244  39.404
1436.63  24.270  39.404
1437.13  24.270  39.257
1437.63  24.270  39.404
1438.13  24.244  39.331
1438.63  24.270  39.404
1439.13  24.270  39.404
1439.63  24.270  39.404
1440.13  24.218  39.404
1440.63  24.270  39.404
1441.13  24.244  39.331
1441.63  24.244  39.404
1442.13  24.244  39.477
1442.63  24.270  39.331
1443.13  24.270  39.331
1443.63  24.244  39.551
1444.13  24.270  39.477
1444.63  24.270  39.477
1445.13  24.244  39.477
1445.63  24.218  39.404
1446.13  24.270  39.331
1446.63  24.270  39.404
1447.13  24.270  39.477
1447.63  24.244  39.477
1448.13  24.270  39.404
1448.63  24.296  39.404
1449.13  24.270  39.477
1449.63  24.296  39.404
1450.13  24.244  39.477
1450.63  24.296  39.551
1451.13  24.296  39.404
1451.63  24.270  39.404
1452.13  24.270  39.404
1452.63  24.270  39.477
1453.13  24.270  39.404
1453.63  24.270  39.551
1454.13  24.270  39.477
1454.63  24.244  39.404
1455.13  24.244  39.404
1455.63  24.244  39.477
1456.13  24.270  39.477
1456.63  24.270  39.477
1457.13  24.244  39.477
1457.63  24.244  39.404
1458.13  24.270  39.551
1458.63  24.244  39.477
1459.13  24.218  39.477
1459.63  24.270  39.404
1460.13  24.244  39.551
1460.63  24.296  39.551
1461.13  24.296  39.477
1461.63  24.244  39.477
1462.13  24.270  39.404
1462.63  24.244  39.477
1463.13  24.270  39.404
1463.63  24.296  39.404
1464.13  24.270  39.624
1464.63  24.296  39.551
1465.13  24.244  39.477
1465.63  24.270  39.404
1466.13  24.244  39.477
1466.63  24.270  39.477
1467.13  24.218  39.477
1467.63  24.244  39.477
1468.13  24.270  39.404
1468.63  24.270  39.477
1469.13  24.270  39.404
1469.63  24.270  39.551
1470.13  24.270  39.477
1470.63  24.296  39.551
1471.13  24.270  39.477
1471.63  24.322  39.477
1472.13  24.296  39.477
1472.63  24.270  39.551
1473.13  24.296  39.477
1473.63  24.322  39.477
1474.13  24.270  39.477
1474.63  24.270  39.404
1475.13  24.270  39.477
1475.63  24.270  39.477
1476.13  24.270  39.477
1476.63  24.296  39.477
1477.13  24.270  39.551
1477.63  24.296  39.551
1478.13  24.296  39.477
1478.63  24.322  39.477
1479.13  24.270  39.551
1479.63  24.296  39.551
1480.13  24.218  39.404
1480.63  24.270  39.551
1481.13  24.270  39.624
1481.63  24.296  39.477
1482.13  24.270  39.551
1482.63  24.270  39.477
1483.13  24.270  39.477
1483.63  24.296  39.477
1484.13  24.270  39.477
1484.63  24.270  39.477
1485.13  24.270  39.477
1485.63  24.244  39.477
1486.13  24.270  39.477
1486.63  24.270  39.477
1487.13  24.296  39.551
1487.63  24.270  39.551
1488.13  24.322  39.551
1488.63  24.244  39.477
1489.13  24.270  39.551
1489.63  24.296  39.477
1490.13  24.270  39.404
1490.63  24.270  39.551
1491.13  24.270  39.551
1491.63  24.270  39.551
1492.13  24.244  39.477
1492.63  24.296  39.477
1493.13  24.270  39.477
1493.63  24.244  39.477
1494.13  24.270  39.477
1494.63  24.270  39.551
1495.13  24.270  39.624
1495.63  24.270  39.477
1496.13  24.296  39.477
1496.63  24.270  39.477
1497.13  24.270  39.477
1497.63  24.296  39.477
1498.13  24.296  39.551
1498.63  24.270  39.624
1499.13  24.296  39.551
1499.63  24.270  39.477
1500.13  24.270  39.624
1500.63  24.270  39.551
1501.13  24.270  39.477
1501.63  24.244  39.477
1502.13  24.322  39.551
1502.63  24.244  39.551
1503.13  24.270  39.551
1503.63  24.296  39.551
1504.13  24.296  39.477
1504.63  24.244  39.477
1505.13  24.270  39.551
1505.63  24.244  39.477
1506.13  24.270  39.551
1506.63  24.296  39.551
1507.13  24.322  39.551
1507.63  24.348  39.551
1508.13  24.218  39.551
1508.63  24.270  39.551
1509.13  24.270  39.477
1509.63  24.244  39.477
1510.13  24.244  39.551
1510.63  24.244  39.477
1511.13  24.270  39.551
1511.63  24.296  39.551
1512.13  24.296  39.551
1512.63  24.244  39.551
1513.13  24.296  39.551
1513.63  24.296  39.624
1514.13  24.270  39.551
1514.63  24.244  39.551
1515.13  24.296  39.551
1515.63  24.270  39.477
1516.13  24.296  39.551
1516.63  24.270  39.551
1517.13  24.270  39.551
1517.63  24.270  39.624
1518.13  24.296  39.551
1518.63  24.270  39.551
1519.13  24.270  39.551
1519.63  24.270  39.551
1520.13  24.244  39.551
1520.63  24.270  39.477
1521.13  24.270  39.551
1521.63  24.296  39.551
1522.13  24.296  39.477
1522.63  24.296  39.551
1523.13  24.270  39.551
1523.63  24.296  39.624
1524.13  24.296  39.624
1524.63  24.270  39.551
1525.13  24.244  39.551
1525.63  24.296  39.551
1526.13  24.270  39.551
1526.63  24.322  39.551
1527.13  24.296  39.477
1527.63  24.244  39.624
1528.13  24.270  39.551
1528.63  24.270  39.551
1529.13  24.296  39.551
1529.64  24.322  39.551
1530.14  24.244  39.551
1530.64  24.270  39.551
1531.14  24.270  39.551
1531.64  24.270  39.477
1532.14  24.244  39.551
1532.64  24.270  39.551
1533.14  24.322  39.551
1533.64  24.270  39.551
1534.14  24.270  39.477
1534.64  24.244  39.624
1535.14  24.270  39.551
1535.64  24.270  39.551
1536.14  24.296  39.551
1536.64  24.244  39.624
1537.14  24.270  39.477
1537.64  24.270  39.477
1538.14  24.270  39.551
1538.64  24.270  39.551
1539.14  24.270  39.551
1539.64  24.270  39.624
1540.14  24.244  39.551
1540.64  24.296  39.624
1541.14  24.244  39.551
1541.64  24.270  39.551
1542.14  24.296  39.551
1542.64  24.270  39.551
1543.14  24.296  39.551
1543.64  24.296  39.551
1544.14  24.296  39.551
1544.64  24.296  39.697
1545.14  24.270  39.697
1545.64  24.244  39.551
1546.14  24.270  39.477
1546.64  24.296  39.624
1547.14  24.296  39.551
1547.64  24.296  39.624
1548.14  24.270  39.551
1548.64  24.296  39.551
1549.14  24.296  39.624
1549.64  24.296  39.624
1550.14  24.296  39.624
1550.64  24.218  39.551
1551.14  24.270  39.624
1551.64  24.296  39.697
1552.14  24.270  39.551
1552.64  24.218  39.551
1553.14  24.270  39.551
1553.64  24.270  39.624
1554.14  24.270  39.551
1554.64  24.296  39.551
1555.14  24.296  39.697
1555.64  24.296  39.624
1556.14  24.270  39.551
1556.64  24.296  39.624
1557.14  24.296  39.551
1557.64  24.296  39.477
1558.14  24.270  39.624
1558.64  24.296  39.624
1559.14  24.296  39.624
1559.64  24.296  39.624
1560.14  24.270  39.551
1560.64  24.270  39.624
1561.14  24.296  39.624
1561.64  24.296  39.771
1562.14  24.270  39.624
1562.64  24.296  39.697
1563.14  24.296  39.551
1563.64  24.296  39.697
1564.14  24.270  39.624
1564.64  24.270  39.697
1565.14  24.270  39.624
1565.64  24.296  39.551
1566.14  24.296  39.624
1566.64  24.296  39.624
1567.14  24.296  39.624
1567.64  24.348  39.551
1568.14  24.296  39.624
1568.64  24.322  39.624
1569.14  24.270  39.624
1569.64  24.322  39.624
1570.14  24.270  39.624
1570.64  24.296  39.697
1571.14  24.296  39.624
1571.64  24.296  39.624
1572.14  24.348  39.697
1572.64  24.322  39.624
1573.14  24.270  39.697
1573.64  24.270  39.624
1574.14  24.296  39.624
1574.64  24.270  39.624
1575.14  24.296  39.697
1575.64  24.270  39.624
1576.14  24.296  39.624
1576.64  24.296  39.624
1577.14  24.296  39.697
1577.64  24.322  39.624
1578.14  24.270  39.624
1578.64  24.322  39.624
1579.14  24.270  39.624
1579.64  24.296  39.551
1580.14  24.296  39.624
1580.64  24.270  39.624
1581.14  24.270  39.697
1581.64  24.296  39.624
1582.14  24.296  39.624
1582.64  24.270  39.624
1583.14  24.296  39.697
1583.64  24.322  39.624
1584.14  24.270  39.624
1584.64  24.296  39.624
1585.14  24.270  39.624
1585.64  24.270  39.697
1586.14  24.270  39.624
1586.64  24.296  39.697
1587.14  24.296  39.624
1587.64  24.322  39.697
1588.14  24.296  39.697
1588.64  24.270  39.624
1589.14  24.296  39.624
1589.64  24.296  39.624
1590.14  24.322  39.624
1590.64  24.296  39.624
1591.14  24.322  39.624
1591.64  24.322  39.624
1592.14  24.296  39.697
1592.64  24.270  39.624
1593.14  24.270  39.624
1593.64  24.296  39.771
1594.14  24.296  39.624
1594.64  24.296  39.771
1595.14  24.296  39.771
1595.64  24.244  39.697
1596.14  24.296  39.624
1596.64  24.270  39.551
1597.14  24.270  39.697
1597.64  24.401  39.697
1598.14  24.296  39.624
1598.64  24.296  39.697
1599.14  24.296  39.624
1599.64  24.296  39.624
1600.14  24.270  39.697
1600.64  24.296  39.771
1601.14  24.322  39.624
1601.64  24.296  39.771
1602.14  24.270  39.624
1602.64  24.322  39.697
1603.14  24.270  39.697
1603.64  24.322  39.697
1604.14  24.270  39.697
1604.64  24.296  39.697
1605.14  24.270  39.697
1605.64  24.296  39.624
1606.14  24.296  39.624
1606.64  24.296  39.697
1607.14  24.270  39.697
1607.64  24.270  39.697
1608.14  24.296  39.624
1608.64  24.296  39.624
1609.14  24.296  39.697
1609.64  24.270  39.697
1610.14  24.322  39.697
1610.64  24.296  39.624
1611.14  24.296  39.624
1611.64  24.322  39.697
1612.14  24.296  39.697
1612.64  24.348  39.697
1613.14  24.296  39.624
1613.64  24.270  39.771
1614.14  24.270  39.697
1614.64  24.296  39.624
1615.14  24.270  39.624
1615.64  24.296  39.697
1616.14  24.322  39.697
1616.64  24.296  39.624
1617.14  24.296  39.697
1617.64  24.270  39.697
1618.14  24.296  39.624
1618.64  24.296  39.697
1619.14  24.270  39.697
1619.64  24.322  39.624
1620.14  24.322  39.697
1620.64  24.296  39.697
1621.14  24.322  39.697
1621.64  24.296  39.624
1622.14  24.296  39.697
1622.64  24.296  39.697
1623.14  24.348  39.624
1623.64  24.296  39.624
1624.14  24.270  39.771
1624.64  24.322  39.697
1625.14  24.296  39.697
1625.64  24.296  39.697
1626.14  24.322  39.697
1626.64  24.296  39.697
1627.14  24.296  39.697
1627.64  24.270  39.771
1628.14  24.296  39.624
1628.64  24.401  39.771
1629.14  24.296  39.697
1629.64  24.296  39.697
1630.14  24.296  39.844
1630.64  24.348  39.771
1631.14  24.270  39.697
1631.64  24.270  39.697
1632.14  24.270  39.697
1632.64  24.296  39.771
1633.14  24.270  39.697
1633.64  24.296  39.697
1634.14  24.270  39.697
1634.64  24.296  39.771
1635.14  24.296  39.697
1635.64  24.348  39.697
1636.14  24.270  39.697
1636.64  24.296  39.624
1637.14  24.296  39.697
1637.64  24.296  39.697
1638.14  24.296  39.697
1638.64  24.270  39.697
1639.14  24.296  39.697
1639.64  24.322  39.844
1640.14  24.296  39.624
1640.64  24.270  39.624
1641.14  24.348  39.624
1641.64  24.296  39.771
1642.14  24.322  39.697
1642.65  24.296  39.697
1643.15  24.348  39.624
1643.65  24.270  39.771
1644.15  24.270  39.697
1644.65  24.270  39.697
1645.15  24.322  39.697
1645.65  24.270  39.697
1646.15  24.296  39.771
1646.65  24.322  39.697
1647.15  24.296  39.844
1647.65  24.296  39.771
1648.15  24.296  39.624
1648.65  24.296  39.697
1649.15  24.296  39.697
1649.65  24.296  39.697
1650.15  24.296  39.697
1650.65  24.322  39.697
1651.15  24.296  39.697
1651.65  24.322  39.624
1652.15  24.296  39.697
1652.65  24.296  39.697
1653.15  24.322  39.697
1653.65  24.296  39.697
1654.15  24.270  39.697
1654.65  24.296  39.771
1655.15  24.296  39.697
1655.65  24.296  39.771
1656.15  24.322  39.697
1656.65  24.270  39.771
1657.15  24.322  39.771
1657.65  24.270  39.697
1658.15  24.322  39.771
1658.65  24.296  39.697
1659.15  24.270  39.771
1659.65  24.296  39.771
1660.15  24.296  39.697
1660.65  24.270  39.771
1661.15  24.322  39.697
1661.65  24.296  39.697
1662.15  24.375  39.771
1662.65  24.296  39.771
1663.15  24.296  39.771
1663.65  24.270  39.771
1664.15  24.296  39.771
1664.65  24.296  39.771
1665.15  24.296  39.844
1665.65  24.270  39.844
1666.15  24.322  39.844
1666.65  24.296  39.844
1667.15  24.322  39.697
1667.65  24.296  39.771
1668.15  24.322  39.771
1668.65  24.296  39.697
1669.15  24.296  39.697
1669.65  24.322  39.771
1670.15  24.322  39.771
1670.65  24.322  39.697
1671.15  24.322  39.697
1671.65  24.296  39.771
1672.15  24.322  39.771
1672.65  24.270  39.771
1673.15  24.296  39.771
1673.65  24.244  39.771
1674.15  24.296  39.771
1674.65  24.322  39.771
1675.15  24.296  39.771
1675.65  24.296  39.697
1676.15  24.322  39.771
1676.65  24.296  39.771
1677.15  24.296  39.771
1677.65  24.270  39.844
1678.15  24.322  39.771
1678.65  24.296  39.771
1679.15  24.322  39.771
1679.65  24.348  39.697
1680.15  24.296  39.771
1680.65  24.322  39.771
1681.15  24.322  39.697
1681.65  24.322  39.697
1682.15  24.244  39.771
1682.65  24.322  39.771
1683.15  24.296  39.771
1683.65  24.296  39.771
1684.15  24.296  39.771
1684.65  24.270  39.844
1685.15  24.296  39.844
1685.65  24.322  39.844
1686.15  24.270  39.771
1686.65  24.270  39.771
1687.15  24.322  39.844
1687.65  24.322  39.697
1688.15  24.296  39.771
1688.65  24.296  39.771
1689.15  24.296  39.697
1689.65  24.322  39.844
1690.15  24.296  39.771
1690.65  24.296  39.771
1691.15  24.296  39.844
1691.65  24.296  39.771
1692.15  24.296  39.771
1692.65  24.244  39.771
1693.15  24.296  39.917
1693.65  24.270  39.771
1694.15  24.296  39.771
1694.65  24.348  39.771
1695.15  24.296  39.771
1695.65  24.218  39.771
1696.15  24.322  39.697
1696.65  24.322  39.771
1697.15  24.296  39.771
1697.65  24.296  39.771
1698.15  24.244  39.697
1698.65  24.322  39.697
1699.15  24.296  39.771
1699.65  24.296  39.844
1700.15  24.322  39.771
1700.65  24.322  39.771
1701.15  24.296  39.771
1701.65  24.296  39.771
1702.15  24.322  39.990
1702.65  24.322  39.771
1703.15  24.270  39.771
1703.65  24.322  39.697
1704.15  24.322  39.771
1704.65  24.322  39.844
1705.15  24.270  39.771
1705.65  24.296  39.697
1706.15  24.296  39.844
1706.65  24.296  39.771
1707.15  24.322  39.771
1707.65  24.322  39.844
1708.15  24.296  39.771
1708.65  24.322  39.771
1709.15  24.296  39.844
1709.65  24.296  39.771
1710.15  24.296  39.771
1710.65  24.296  39.844
1711.15  24.296  39.844
1711.65  24.322  39.771
1712.15  24.348  39.844
1712.65  24.296  39.771
1713.15  24.270  39.771
1713.65  24.322  39.771
1714.15  24.348  39.771
1714.65  24.322  39.771
1715.15  24.270  39.771
1715.65  24.296  39.844
1716.15  24.270  39.771
1716.65  24.296  39.771
1717.15  24.296  39.844
1717.65  24.322  39.771
1718.15  24.296  39.771
1718.65  24.296  39.697
1719.15  24.296  39.771
1719.65  24.322  39.771
1720.15  24.322  39.771
1720.65  24.322  39.844
1721.15  24.322  39.771
1721.65  24.348  39.917
1722.15  24.322  39.771
1722.65  24.322  39.844
1723.15  24.375  39.917
1723.65  24.322  39.844
1724.15  24.322  39.771
1724.65  24.322  39.844
1725.15  24.296  39.844
1725.65  24.270  39.917
1726.15  24.375  39.844
1726.65  24.322  39.771
1727.15  24.375  39.771
1727.65  24.296  39.844
1728.15  24.296  39.771
1728.65  24.296  39.771
1729.15  24.322  39.844
1729.65  24.296  39.844
1730.15  24.322  39.844
1730.65  24.322  39.771
1731.15  24.322  39.771
1731.65  24.401  39.844
1732.15  24.270  39.917
1732.65  24.401  39.771
1733.15  24.322  39.844
1733.65  24.322  39.771
1734.15  24.322  39.771
1734.65  24.322  39.844
1735.15  24.296  39.844
1735.65  24.322  39.844
1736.15  24.296  39.697
1736.65  24.322  39.844
1737.15  24.296  39.771
1737.65  24.296  39.917
1738.15  24.296  39.697
1738.65  24.322  39.771
1739.15  24.296  39.844
1739.65  24.322  39.844
1740.15  24.296  39.697
1740.65  24.296  39.844
1741.15  24.296  39.771
1741.65  24.270  39.844
1742.15  24.322  39.844
1742.65  24.348  39.844
1743.15  24.322  39.844
1743.65  24.270  39.771
1744.15  24.401  39.917
1744.65  24.322  39.844
1745.15  24.427  39.917
1745.65  24.322  39.771
1746.15  24.296  39.844
1746.65  24.296  39.771
1747.15  24.322  39.844
1747.65  24.296  39.771
1748.15  24.348  39.844
1748.65  24.322  39.771
1749.15  24.322  39.844
1749.65  24.296  39.844
1750.15  24.296  39.844
1750.65  24.322  39.844
1751.15  24.322  39.771
1751.65  24.296  39.844
1752.15  24.348  39.844
1752.65  24.322  39.844
1753.15  24.322  39.771
1753.65  24.322  39.844
1754.15  24.322  39.844
1754.65  24.296  39.844
1755.15  24.322  39.844
1755.66  24.322  39.844
1756.16  24.270  39.844
1756.66  24.348  39.771
1757.16  24.322  39.917
1757.66  24.322  39.844
1758.16  24.296  39.771
1758.66  24.296  39.917
1759.16  24.322  39.844
1759.66  24.322  39.917
1760.16  24.322  39.844
1760.66  24.322  39.844
1761.16  24.322  39.844
1761.66  24.296  39.917
1762.16  24.296  39.844
1762.66  24.322  39.917
1763.16  24.270  39.771
1763.66  24.322  39.844
1764.16  24.322  39.844
1764.66  24.348  39.844
1765.16  24.322  39.844
1765.66  24.296  39.844
1766.16  24.296  39.917
1766.66  24.322  39.844
1767.16  24.322  39.844
1767.66  24.322  39.844
1768.16  24.322  39.844
1768.66  24.322  39.917
1769.16  24.322  39.844
1769.66  24.348  39.844
1770.16  24.348  39.844
1770.66  24.322  39.917
1771.16  24.322  39.844
1771.66  24.322  39.844
1772.16  24.322  39.844
1772.66  24.322  39.844
1773.16  24.322  39.844
1773.66  24.322  39.917
1774.16  24.348  39.844
1774.66  24.348  39.917
1775.16  24.322  39.917
1775.66  24.296  39.917
1776.16  24.322  39.771
1776.66  24.296  39.844
1777.16  24.296  39.844
1777.66  24.322  39.917
1778.16  24.322  39.844
1778.66  24.322  39.917
1779.16  24.322  39.624
1779.66  24.348  39.917
1780.16  24.322  39.844
1780.66  24.322  39.844
1781.16  24.348  39.917
1781.66  24.322  39.917
1782.16  24.322  39.844
1782.66  24.322  39.844
1783.16  24.322  39.844
1783.66  24.296  39.844
1784.16  24.322  39.844
1784.66  24.375  39.917
1785.16  24.322  39.844
1785.66  24.322  39.844
1786.16  24.296  39.844
1786.66  24.322  39.844
1787.16  24.322  39.917
1787.66  24.375  39.771
1788.16  24.322  39.917
1788.66  24.348  39.990
1789.16  24.322  39.844
1789.66  24.322  39.844
1790.16  24.322  39.844
1790.66  24.348  39.844
1791.16  24.296  39.844
1791.66  24.322  39.771
1792.16  24.322  39.844
1792.66  24.348  39.771
1793.16  24.322  39.917
1793.66  24.322  39.844
1794.16  24.322  39.844
1794.66  24.322  39.844
1795.16  24.348  39.844
1795.66  24.322  39.844
1796.16  24.322  39.771
1796.66  24.322  39.771
1797.16  24.322  39.917
1797.66  24.322  39.844
1798.16  24.322  39.771
1798.66  24.296  39.844
1799.16  24.322  39.771
1799.66  24.322  39.697
1800.16  24.296  39.844
1800.66  24.322  39.771
1801.16  24.322  39.844
1801.66  24.296  39.917
1802.16  24.322  39.771
1802.66  24.348  39.844
1803.16  24.322  39.844
1803.66  24.375  39.844
1804.16  24.296  39.844
1804.66  24.296  39.844
1805.16  24.322  39.844
1805.66  24.322  39.844
1806.16  24.322  39.917
1806.66  24.322  39.844
1807.16  24.296  39.917
1807.66  24.322  39.844
1808.16  24.322  39.844
1808.66  24.348  39.844
1809.16  24.322  39.844
1809.66  24.322  39.771
1810.16  24.322  39.771
1810.66  24.348  39.844
1811.16  24.348  39.844
1811.66  24.348  39.844
1812.16  24.322  39.771
1812.66  24.322  39.844
1813.16  24.296  39.844
1813.66  24.322  39.844
1814.16  24.322  39.844
1814.66  24.322  39.771
1815.16  24.322  39.844
1815.66  24.296  39.844
1816.16  24.348  39.844
1816.66  24.348  39.844
1817.16  24.296  39.771
1817.66  24.270  39.844
1818.16  24.348  39.771
1818.66  24.348  39.771
1819.16  24.322  39.771
1819.66  24.322  39.771
1820.16  24.322  39.771
1820.66  24.322  39.844
1821.16  24.348  39.844
1821.66  24.375  39.771
1822.16  24.322  39.844
1822.66  24.296  39.844
1823.16  24.296  39.844
1823.66  24.296  39.844
1824.16  24.348  39.771
1824.66  24.401  39.771
1825.16  24.348  39.844
1825.66  24.322  39.844
1826.16  24.348  39.990
1826.66  24.322  39.844
1827.16  24.348  39.844
1827.66  24.322  39.771
1828.16  24.322  39.844
1828.66  24.322  39.771
1829.16  24.322  39.844
1829.66  24.348  39.844
1830.16  24.348  39.844
1830.66  24.322  39.771
1831.16  24.348  39.771
1831.66  24.348  39.844
1832.16  24.322  39.844
1832.66  24.296  39.844
1833.16  24.322  39.844
1833.66  24.322  39.844
1834.16  24.322  39.844
1834.66  24.296  39.917
1835.16  24.322  39.844
1835.66  24.322  39.844
1836.16  24.296  39.844
1836.66  24.322  39.844
1837.16  24.322  39.844
1837.66  24.348  39.917
1838.16  24.348  39.844
1838.66  24.322  39.844
1839.16  24.296  39.771
1839.66  24.322  39.771
1840.16  24.322  39.771
1840.66  24.322  39.844
1841.16  24.375  39.844
1841.66  24.322  39.771
1842.16  24.348  39.844
1842.66  24.296  39.771
1843.16  24.322  39.771
1843.66  24.348  39.844
1844.16  24.322  39.844
1844.66  24.296  39.844
1845.16  24.348  39.771
1845.66  24.348  39.844
1846.16  24.348  39.844
1846.66  24.348  39.771
1847.16  24.348  39.844
1847.66  24.348  39.771
1848.16  24.322  39.844
1848.66  24.348  39.844
1849.16  24.427  39.844
1849.66  24.322  39.771
1850.16  24.322  39.844
1850.66  24.322  39.917
1851.16  24.322  39.844
1851.66  24.322  39.844
1852.16  24.322  39.844
1852.66  24.348  39.844
1853.16  24.348  39.844
1853.66  24.348  39.917
1854.16  24.375  39.917
1854.66  24.322  39.844
1855.16  24.296  39.917
1855.66  24.348  39.844
1856.16  24.322  39.917
1856.66  24.322  39.990
1857.16  24.375  39.917
1857.66  24.322  39.771
1858.16  24.375  39.844
1858.66  24.348  39.844
1859.16  24.348  39.917
1859.66  24.322  39.990
1860.16  24.296  39.917
1860.66  24.348  39.990
1861.16  24.322  39.771
1861.66  24.348  39.990
1862.16  24.348  39.844
1862.66  24.348  39.917
1863.16  24.322  39.917
1863.66  24.322  39.844
1864.16  24.348  39.917
1864.66  24.322  39.844
1865.16  24.322  39.844
1865.66  24.348  39.917
1866.16  24.322  39.990
1866.66  24.348  39.917
1867.16  24.322  39.844
1867.66  24.270  39.917
1868.16  24.348  39.844
1868.66  24.348  39.917
1869.17  24.375  39.917
1869.67  24.348  39.844
1870.17  24.348  39.917
1870.67  24.322  39.917
1871.17  24.322  39.844
1871.67  24.401  39.917
1872.17  24.348  39.917
1872.67  24.322  39.917
1873.17  24.348  39.917
1873.67  24.322  39.844
1874.17  24.348  39.917
1874.67  24.348  39.917
1875.17  24.375  39.917
1875.67  24.348  39.844
1876.17  24.348  39.917
1876.67  24.322  39.917
1877.17  24.296  39.844
1877.67  24.322  39.917
1878.17  24.348  39.990
1878.67  24.322  39.990
1879.17  24.322  39.844
1879.67  24.322  39.990
1880.17  24.348  39.917
1880.67  24.322  39.917
1881.17  24.375  39.917
1881.67  24.322  39.917
1882.17  24.375  39.917
1882.67  24.348  39.844
1883.17  24.270  39.917
1883.67  24.322  39.844
1884.17  24.322  39.990
1884.67  24.348  39.917
1885.17  24.348  39.917
1885.67  24.348  39.917
1886.17  24.348  39.990
1886.67  24.322  39.917
1887.17  24.348  39.917
1887.67  24.348  39.917
1888.17  24.348  39.917
1888.67  24.375  39.917
1889.17  24.348  39.917
1889.67  24.322  39.917
1890.17  24.348  39.917
1890.67  24.348  39.917
1891.17  24.348  39.990
1891.67  24.322  39.917
1892.17  24.348  39.917
1892.67  24.322  39.844
1893.17  24.348  39.990
1893.67  24.322  39.917
1894.17  24.322  39.917
1894.67  24.348  39.917
1895.17  24.322  39.844
1895.67  24.322  39.844
1896.17  24.322  39.917
1896.67  24.348  39.990
1897.17  24.375  39.917
1897.67  24.322  39.917
1898.17  24.348  39.990
1898.67  24.348  39.990
1899.17  24.348  39.917
1899.67  24.322  40.168
1900.17  24.348  39.624
1900.67  24.348  39.990
1901.17  24.348  39.917
1901.67  24.375  39.917
1902.17  24.348  39.917
1902.67  24.375  39.917
1903.17  24.375  39.917
1903.67  24.348  39.990
1904.17  24.348  39.917
1904.67  24.348  39.917
1905.17  24.348  39.990
1905.67  24.322  39.917
1906.17  24.348  39.990
1906.67  24.348  39.990
1907.17  24.322  39.917
1907.67  24.322  39.917
1908.17  24.322  39.917
1908.67  24.348  39.917
1909.17  24.348  39.917
1909.67  24.322  40.078
1910.17  24.348  39.990
1910.67  24.348  39.990
1911.17  24.322  39.990
1911.67  24.375  39.990
1912.17  24.348  39.917
1912.67  24.375  40.078
1913.17  24.348  39.990
1913.67  24.322  39.917
1914.17  24.348  39.990
1914.67  24.348  39.990
1915.17  24.348  40.078
1915.67  24.348  40.078
1916.17  24.375  39.990
1916.67  24.348  39.917
1917.17  24.348  39.990
1917.67  24.322  39.990
1918.17  24.348  39.990
1918.67  24.322  39.990
1919.17  24.348  39.917
1919.67  24.348  39.990
1920.17  24.348  39.990
1920.67  24.348  39.917
1921.17  24.348  39.917
1921.67  24.322  40.078
1922.17  24.322  39.990
1922.67  24.375  39.917
1923.17  24.348  39.990
1923.67  24.322  39.990
1924.17  24.348  39.917
1924.67  24.322  39.990
1925.17  24.348  39.990
1925.67  24.348  39.990
1926.17  24.348  40.078
1926.67  24.348  39.990
1927.17  24.348  39.990
1927.67  24.348  39.990
1928.17  24.296  39.917
1928.67  24.348  39.990
1929.17  24.348  39.990
1929.67  24.348  39.990
1930.17  24.348  39.990
1930.67  24.348  39.990
1931.17  24.322  39.990
1931.67  24.322  39.990
1932.17  24.322  39.917
1932.67  24.375  39.990
1933.17  24.375  40.078
1933.67  24.322  39.990
1934.17  24.348  39.990
1934.67  24.375  39.990
1935.17  24.348  39.917
1935.67  24.348  39.990
1936.17  24.348  39.990
1936.67  24.348  40.078
1937.17  24.348  39.990
1937.67  24.375  39.990
1938.17  24.348  40.078
1938.67  24.375  40.078
1939.17  24.348  39.990
1939.67  24.322  39.990
1940.17  24.322  39.917
1940.67  24.375  40.078
1941.17  24.348  39.990
1941.67  24.348  40.078
1942.17  24.322  39.990
1942.67  24.375  39.990
1943.17  24.322  39.990
1943.67  24.348  40.078
1944.17  24.348  40.078
1944.67  24.322  40.257
1945.17  24.348  40.078
1945.67  24.322  39.990
1946.17  24.348  39.990
1946.67  24.348  40.078
1947.17  24.348  40.078
1947.67  24.322  39.990
1948.17  24.348  40.078
1948.67  24.322  39.990
1949.17  24.375  39.990
1949.67  24.322  39.990
1950.17  24.348  39.990
1950.67  24.348  40.078
1951.17  24.322  40.078
1951.67  24.375  39.990
1952.17  24.348  40.078
1952.67  24.348  40.078
1953.17  24.375  40.078
1953.67  24.322  40.168
1954.17  24.322  40.078
1954.67  24.348  40.168
1955.17  24.348  40.078
1955.67  24.375  40.078
1956.17  24.375  40.168
1956.67  24.375  40.078
1957.17  24.375  40.078
1957.67  24.348  40.078
1958.17  24.348  40.078
1958.67  24.375  40.168
1959.17  24.375  40.078
1959.67  24.322  39.990
1960.17  24.296  39.990
1960.67  24.348  40.078
1961.17  24.375  39.990
1961.67  24.375  40.078
1962.17  24.375  40.078
1962.67  24.348  40.078
1963.17  24.348  40.078
1963.67  24.375  40.078
1964.17  24.375  39.990
1964.67  24.322  39.990
1965.17  24.348  40.078
1965.67  24.348  40.078
1966.17  24.348  40.078
1966.67  24.348  40.168
1967.17  24.348  40.078
1967.67  24.322  40.078
1968.17  24.375  40.078
1968.67  24.348  40.168
1969.17  24.322  40.078
1969.67  24.348  39.990
1970.17  24.348  40.168
1970.67  24.375  40.168
1971.17  24.375  40.078
1971.67  24.348  40.078
1972.17  24.375  40.168
1972.67  24.401  40.078
1973.17  24.348  40.257
1973.67  24.375  40.078
1974.17  24.322  40.257
1974.67  24.348  40.257
1975.17  24.348  40.078
1975.67  24.375  40.168
1976.17  24.348  40.078
1976.67  24.375  40.078
1977.17  24.375  40.078
1977.67  24.375  40.078
1978.17  24.348  40.078
1978.67  24.348  40.168
1979.17  24.348  40.078
1979.67  24.375  40.168
1980.17  24.348  39.990
1980.67  24.348  40.078
1981.17  24.348  40.078
1981.67  24.322  40.078
1982.18  24.322  40.078
1982.68  24.348  40.078
1983.18  24.348  40.078
1983.68  24.348  40.078
1984.18  24.401  40.078
1984.68  24.348  40.078
1985.18  24.348  40.257
1985.68  24.401  40.168
1986.18  24.375  40.168
1986.68  24.348  40.347
1987.18  24.348  40.078
1987.68  24.348  40.168
1988.18  24.375  40.078
1988.68  24.348  40.168
1989.18  24.348  40.078
1989.68  24.375  40.168
1990.18  24.375  40.078
1990.68  24.401  40.078
1991.18  24.401  39.990
1991.68  24.401  40.078
1992.18  24.296  40.168
1992.68  24.375  40.168
1993.18  24.348  40.168
1993.68  24.296  40.168
1994.18  24.375  40.168
1994.68  24.375  40.168
1995.18  24.348  40.347
1995.68  24.375  40.078
1996.18  24.348  40.078
1996.68  24.375  40.078
1997.18  24.375  40.257
1997.68  24.348  40.078
1998.18  24.375  40.078
1998.68  24.453  40.078
1999.18  24.348  40.168
1999.68  24.348  40.078
2000.18  24.348  40.078
2000.68  24.322  40.168
2001.18  24.375  40.168
2001.68  24.322  40.257
2002.18  24.348  40.168
2002.68  24.375  40.168
2003.18  24.375  40.168
2003.68  24.322  40.168
2004.18  24.348  40.168
2004.68  24.348  40.078
2005.18  24.375  40.257
2005.68  24.348  40.078
2006.18  24.375  40.168
2006.68  24.348  40.078
2007.18  24.401  40.168
2007.68  24.375  40.168
2008.18  24.375  40.168
2008.68  24.375  40.078
2009.18  24.348  40.168
2009.68  24.375  40.168
2010.18  24.375  40.078
2010.68  24.348  40.168
2011.18  24.375  40.168
2011.68  24.348  40.168
2012.18  24.375  40.257
2012.68  24.348  40.078
2013.18  24.348  40.168
2013.68  24.296  40.168
2014.18  24.348  40.168
2014.68  24.375  40.257
2015.18  24.375  40.168
2015.68  24.322  40.078
2016.18  24.375  40.078
2016.68  24.348  40.168
2017.18  24.348  40.168
2017.68  24.375  40.168
2018.18  24.348  40.168
2018.68  24.348  40.168
2019.18  24.348  40.168
2019.68  24.348  40.257
2020.18  24.375  40.168
2020.68  24.375  40.168
2021.18  24.348  40.168
2021.68  24.375  40.078
2022.18  24.375  40.257
2022.68  24.348  40.168
2023.18  24.375  40.168
2023.68  24.375  40.078
2024.18  24.401  40.257
2024.68  24.375  40.257
2025.18  24.375  40.168
2025.68  24.401  40.257
2026.18  24.401  40.168
2026.68  24.322  40.168
2027.18  24.375  40.257
2027.68  24.401  40.257
2028.18  24.375  40.168
2028.68  24.375  40.347
2029.18  24.375  40.257
2029.68  24.375  40.168
2030.18  24.348  40.168
2030.68  24.348  40.257
2031.18  24.375  40.168
2031.68  24.401  40.168
2032.18  24.322  40.078
2032.68  24.375  40.257
2033.18  24.348  40.257
2033.68  24.348  40.168
2034.18  24.375  40.347
2034.68  24.375  40.257
2035.18  24.375  40.436
2035.68  24.348  40.257
2036.18  24.427  40.257
2036.68  24.427  40.257
2037.18  24.375  40.257
2037.68  24.348  40.168
2038.18  24.348  40.168
2038.68  24.375  40.257
2039.18  24.375  40.257
2039.68  24.348  40.257
2040.18  24.348  40.257
2040.68  24.375  40.257
2041.18  24.322  40.168
2041.68  24.401  40.257
2042.18  24.375  40.257
2042.68  24.375  40.168
2043.18  24.322  40.347
2043.68  24.375  40.347
2044.18  24.375  40.257
2044.68  24.375  40.347
2045.18  24.348  40.257
2045.68  24.375  40.257
2046.18  24.375  40.257
2046.68  24.375  40.257
2047.18  24.401  40.257
2047.68  24.375  40.347
2048.18  24.348  40.257
2048.68  24.348  40.257
2049.18  24.375  40.257
2049.68  24.348  40.257
2050.18  24.348  40.257
2050.68  24.375  40.257
2051.18  24.375  40.168
2051.68  24.401  40.168
2052.18  24.375  40.347
2052.68  24.427  40.257
2053.18  24.375  40.257
2053.68  24.375  40.257
2054.18  24.401  40.257
2054.68  24.375  40.168
2055.18  24.348  40.257
2055.68  24.348  40.257
2056.18  24.375  40.347
2056.68  24.348  40.347
2057.18  24.375  40.436
2057.68  24.375  40.347
2058.18  24.375  40.347
2058.68  24.348  40.257
2059.18  24.401  40.347
2059.68  24.375  40.257
2060.18  24.375  40.257
2060.68  24.401  40.257
2061.18  24.375  40.257
2061.68  24.375  40.347
2062.18  24.348  40.347
2062.68  24.401  40.347
2063.18  24.401  40.347
2063.68  24.375  40.347
2064.18  24.348  40.257
2064.68  24.401  40.168
2065.18  24.375  40.257
2065.68  24.348  40.257
2066.18  24.375  40.347
2066.68  24.375  40.257
2067.18  24.348  40.257
2067.68  24.375  40.257
2068.18  24.375  40.347
2068.68  24.375  40.347
2069.18  24.401  40.347
2069.68  24.348  40.347
2070.18  24.375  40.347
2070.68  24.401  40.257
2071.18  24.375  40.347
2071.68  24.375  40.347
2072.18  24.375  40.347
2072.68  24.375  40.436
2073.18  24.348  40.257
2073.68  24.348  40.436
2074.18  24.401  40.347
2074.68  24.348  40.347
2075.18  24.348  40.257
2075.68  24.375  40.257
2076.18  24.348  40.257
2076.68  24.375  40.347
2077.18  24.348  40.436
2077.68  24.375  40.257
2078.18  24.375  40.257
2078.68  24.401  40.347
2079.18  24.322  40.347
2079.68  24.401  40.257
2080.18  24.348  40.257
2080.68  24.375  40.347
2081.18  24.375  40.347
2081.68  24.375  40.347
2082.18  24.348  40.436
2082.68  24.348  40.347
2083.18  24.401  40.347
2083.68  24.348  40.257
2084.18  24.348  40.347
2084.68  24.375  40.257
2085.18  24.375  40.257
2085.68  24.348  40.347
2086.18  24.375  40.257
2086.68  24.401  40.257
2087.18  24.322  40.347
2087.68  24.375  40.347
2088.18  24.375  40.347
2088.68  24.348  40.347
2089.18  24.375  40.347
2089.68  24.375  40.347
2090.18  24.375  40.436
2090.68  24.375  40.347
2091.18  24.375  40.347
2091.68  24.348  40.347
2092.18  24.427  40.347
2092.68  24.401  40.347
2093.18  24.375  40.347
2093.68  24.375  40.347
2094.18  24.375  40.347
2094.68  24.375  40.257
2095.19  24.375  40.347
2095.69  24.401  40.347
2096.19  24.375  40.347
2096.69  24.427  40.526
2097.19  24.375  40.347
2097.69  24.401  40.347
2098.19  24.375  40.257
2098.69  24.401  40.168
2099.19  24.348  40.347
2099.69  24.401  40.347
2100.19  24.401  40.436
2100.69  24.375  40.347
2101.19  24.348  40.257
2101.69  24.375  40.436
2102.19  24.427  40.436
2102.69  24.401  40.347
2103.19  24.348  40.347
2103.69  24.375  40.347
2104.19  24.348  40.436
2104.69  24.375  40.436
2105.19  24.375  40.347
2105.69  24.375  40.347
2106.19  24.401  40.526
2106.69  24.401  40.347
2107.19  24.401  40.347
2107.69  24.375  40.436
2108.19  24.348  40.257
2108.69  24.375  40.347
2109.19  24.427  40.257
2109.69  24.375  40.436
2110.19  24.375  40.436
2110.69  24.348  40.347
2111.19  24.375  40.436
2111.69  24.427  40.347
2112.19  24.401  40.436
2112.69  24.427  40.347
2113.19  24.375  40.347
2113.69  24.375  40.347
2114.19  24.401  40.436
2114.69  24.401  40.436
2115.19  24.401  40.347
2115.69  24.401  40.436
2116.19  24.348  40.257
2116.69  24.401  40.347
2117.19  24.375  40.436
2117.69  24.348  40.347
2118.19  24.375  40.347
2118.69  24.348  40.436
2119.19  24.401  40.347
2119.69  24.375  40.526
2120.19  24.453  40.347
2120.69  24.375  40.436
2121.19  24.375  40.436
2121.69  24.401  40.347
2122.19  24.375  40.347
2122.69  24.401  40.436
2123.19  24.375  40.436
2123.69  24.375  40.347
2124.19  24.401  40.347
2124.69  24.375  40.436
2125.19  24.375  40.347
2125.69  24.375  40.347
2126.19  24.322  40.347
2126.69  24.375  40.436
2127.19  24.348  40.436
2127.69  24.375  40.347
2128.19  24.375  40.436
2128.69  24.375  40.347
2129.19  24.375  40.436
2129.69  24.375  40.436
2130.19  24.453  40.436
2130.69  24.401  40.347
2131.19  24.375  40.436
2131.69  24.375  40.347
2132.19  24.375  40.257
2132.69  24.375  40.436
2133.19  24.375  40.347
2133.69  24.375  40.436
2134.19  24.401  40.347
2134.69  24.348  40.436
2135.19  24.375  40.526
2135.69  24.322  40.347
2136.19  24.348  40.436
2136.69  24.375  40.526
2137.19  24.375  40.526
2137.69  24.375  40.436
2138.19  24.401  40.347
2138.69  24.375  40.436
2139.19  24.401  40.436
2139.69  24.375  40.436
2140.19  24.401  40.526
2140.69  24.401  40.436
2141.19  24.375  40.436
2141.69  24.375  40.347
2142.19  24.375  40.436
2142.69  24.401  40.436
2143.19  24.401  40.436
2143.69  24.375  40.436
2144.19  24.401  40.526
2144.69  24.375  40.436
2145.19  24.375  40.436
2145.69  24.375  40.526
2146.19  24.375  40.436
2146.69  24.401  40.436
2147.19  24.348  40.436
2147.69  24.375  40.436
2148.19  24.401  40.436
2148.69  24.375  40.436
2149.19  24.375  40.436
2149.69  24.375  40.436
2150.19  24.427  40.436
2150.69  24.401  40.347
2151.19  24.375  40.436
2151.69  24.348  40.436
2152.19  24.479  40.436
2152.69  24.401  40.436
2153.19  24.348  40.436
2153.69  24.375  40.436
2154.19  24.348  40.436
2154.69  24.375  40.526
2155.19  24.427  40.526
2155.69  24.375  40.616
2156.19  24.348  40.436
2156.69  24.401  40.526
2157.19  24.401  40.436
2157.69  24.401  40.436
2158.19  24.401  40.526
2158.69  24.427  40.526
2159.19  24.375  40.436
2159.69  24.401  40.436
2160.19  24.427  40.436
2160.69  24.401  40.526
2161.19  24.375  40.436
2161.69  24.401  40.526
2162.19  24.375  40.436
2162.69  24.375  40.616
2163.19  24.375  40.347
2163.69  24.401  40.526
2164.19  24.348  40.526
2164.69  24.401  40.436
2165.19  24.375  40.526
2165.69  24.427  40.436
2166.19  24.348  40.436
2166.69  24.375  40.526
2167.19  24.375  40.436
2167.69  24.375  40.436
2168.19  24.427  40.526
2168.69  24.375  40.436
2169.19  24.401  40.436
2169.69  24.401  40.526
2170.19  24.401  40.526
2170.69  24.375  40.526
2171.19  24.375  40.436
2171.69  24.375  40.526
2172.19  24.375  40.436
2172.69  24.375  40.436
2173.19  24.375  40.436
2173.69  24.401  40.526
2174.19  24.348  40.436
2174.69  24.375  40.526
2175.19  24.375  40.436
2175.69  24.375  40.526
2176.19  24.375  40.526
2176.69  24.375  40.616
2177.19  24.401  40.436
2177.69  24.401  40.436
2178.19  24.427  40.436
2178.69  24.348  40.526
2179.19  24.375  40.526
2179.69  24.401  40.526
2180.19  24.453  40.347
2180.69  24.375  40.526
2181.19  24.375  40.436
2181.69  24.375  40.616
2182.19  24.375  40.526
2182.69  24.375  40.526
2183.19  24.401  40.526
2183.69  24.427  40.616
2184.19  24.427  40.436
2184.69  24.375  40.705
2185.19  24.401  40.436
2185.69  24.375  40.526
2186.19  24.401  40.526
2186.69  24.401  40.526
2187.19  24.375  40.526
2187.69  24.401  40.616
2188.19  24.401  40.436
2188.69  24.375  40.616
2189.19  24.375  40.526
2189.69  24.375  40.526
2190.19  24.375  40.616
2190.69  24.375  40.526
2191.19  24.375  40.526
2191.69  24.427  40.526
2192.19  24.375  40.526
2192.69  24.401  40.526
2193.19  24.375  40.526
2193.69  24.401  40.436
2194.19  24.427  40.526
2194.69  24.375  40.526
2195.19  24.375  40.526
2195.69  24.375  40.526
2196.19  24.401  40.616
2196.69  24.401  40.526
2197.19  24.427  40.526
2197.70  24.401  40.526
2198.20  24.375  40.436
2198.70  24.401  40.526
2199.20  24.401  40.526
2199.70  24.375  40.526
2200.20  24.348  40.526
2200.70  24.375  40.526
2201.20  24.375  40.526
2201.70  24.401  40.526
2202.20  24.427  40.526
2202.70  24.401  40.526
2203.20  24.401  40.526
2203.70  24.427  40.526
2204.20  24.427  40.526
2204.70  24.401  40.436
2205.20  24.401  40.526
2205.70  24.401  40.616
2206.20  24.401  40.526
2206.70  24.401  40.526
2207.20  24.427  40.616
2207.70  24.375  40.526
2208.20  24.401  40.526
2208.70  24.375  40.705
2209.20  24.375  40.616
2209.70  24.427  40.436
2210.20  24.375  40.616
2210.70  24.375  40.616
2211.20  24.348  40.616
2211.70  24.375  40.526
2212.20  24.348  40.705
2212.70  24.401  40.616
2213.20  24.427  40.436
2213.70  24.375  40.526
2214.20  24.375  40.616
2214.70  24.348  40.526
2215.20  24.375  40.526
2215.70  24.401  40.616
2216.20  24.401  40.526
2216.70  24.401  40.616
2217.20  24.427  40.526
2217.70  24.375  40.616
2218.20  24.348  40.526
2218.70  24.375  40.436
2219.20  24.375  40.616
2219.70  24.375  40.526
2220.20  24.401  40.526
2220.70  24.401  40.526
2221.20  24.427  40.616
2221.70  24.375  40.705
2222.20  24.375  40.616
2222.70  24.401  40.616
2223.20  24.375  40.705
2223.70  24.348  40.705
2224.20  24.375  40.616
2224.70  24.401  40.526
2225.20  24.375  40.616
2225.70  24.375  40.616
2226.20  24.375  40.526
2226.70  24.401  40.526
2227.20  24.375  40.616
2227.70  24.348  40.616
2228.20  24.401  40.705
2228.70  24.427  40.616
2229.20  24.427  40.436
2229.70  24.401  40.526
2230.20  24.401  40.616
2230.70  24.427  40.526
2231.20  24.401  40.616
2231.70  24.375  40.616
2232.20  24.401  40.526
2232.70  24.401  40.616
2233.20  24.401  40.436
2233.70  24.401  40.616
2234.20  24.401  40.616
2234.70  24.401  40.616
2235.20  24.401  40.526
2235.70  24.375  40.616
2236.20  24.401  40.616
2236.70  24.375  40.526
2237.20  24.375  40.526
2237.70  24.375  40.616
2238.20  24.401  40.616
2238.70  24.401  40.526
2239.20  24.401  40.526
2239.70  24.401  40.616
2240.20  24.401  40.616
2240.70  24.427  40.526
2241.20  24.375  40.616
2241.70  24.401  40.616
2242.20  24.401  40.616
2242.70  24.401  40.526
2243.20  24.401  40.705
2243.70  24.375  40.705
2244.20  24.375  40.616
2244.70  24.375  40.616
2245.20  24.401  40.616
2245.70  24.375  40.705
2246.20  24.375  40.616
2246.70  24.348  40.526
2247.20  24.401  40.616
2247.70  24.375  40.705
2248.20  24.427  40.526
2248.70  24.401  40.705
2249.20  24.427  40.616
2249.70  24.401  40.616
2250.20  24.375  40.616
2250.70  24.375  40.616
2251.20  24.401  40.705
2251.70  24.375  40.616
2252.20  24.453  40.616
2252.70  24.427  40.616
2253.20  24.401  40.616
2253.70  24.401  40.616
2254.20  24.348  40.616
2254.70  24.401  40.705
2255.20  24.427  40.526
2255.70  24.427  40.616
2256.20  24.401  40.616
2256.70  24.401  40.795
2257.20  24.401  40.616
2257.70  24.453  40.616
2258.20  24.401  40.616
2258.70  24.401  40.616
2259.20  24.401  40.705
2259.70  24.427  40.705
2260.20  24.427  40.705
2260.70  24.401  40.616
2261.20  24.401  40.884
2261.70  24.427  40.795
2262.20  24.427  40.705
2262.70  24.401  40.616
2263.20  24.401  40.616
2263.70  24.401  40.616
2264.20  24.401  40.616
2264.70  24.401  40.705
2265.20  24.401  40.616
2265.70  24.427  40.705
2266.20  24.427  40.616
2266.70  24.401  40.705
2267.20  24.427  40.705
2267.70  24.401  40.616
2268.20  24.401  40.795
2268.70  24.401  40.705
2269.20  24.401  40.705
2269.70  24.375  40.616
2270.20  24.427  40.616
2270.70  24.401  40.705
2271.20  24.401  40.616
2271.70  24.401  40.705
2272.20  24.453  40.616
2272.70  24.401  40.705
2273.20  24.427  40.705
2273.70  24.401  40.705
2274.20  24.427  40.705
2274.70  24.401  40.705
2275.20  24.375  40.705
2275.70  24.401  40.705
2276.20  24.401  40.705
2276.70  24.401  40.705
2277.20  24.375  40.616
2277.70  24.401  40.705
2278.20  24.375  40.705
2278.70  24.427  40.705
2279.20  24.375  40.705
2279.70  24.427  40.705
2280.20  24.401  40.705
2280.70  24.375  40.795
2281.20  24.401  40.795
2281.70  24.401  40.705
2282.20  24.401  40.705
2282.70  24.401  40.616
2283.20  24.401  40.795
2283.70  24.401  40.705
2284.20  24.375  40.705
2284.70  24.401  40.705
2285.20  24.401  40.705
2285.70  24.401  40.705
2286.20  24.427  40.616
2286.70  24.375  40.616
2287.20  24.375  40.705
2287.70  24.401  40.795
2288.20  24.401  40.705
2288.70  24.401  40.616
2289.20  24.401  40.705
2289.70  24.427  40.705
2290.20  24.375  40.705
2290.70  24.427  40.705
2291.20  24.427  40.705
2291.70  24.401  40.616
2292.20  24.401  40.705
2292.70  24.375  40.705
2293.20  24.401  40.705
2293.70  24.427  40.705
2294.20  24.401  40.526
2294.70  24.375  40.705
2295.20  24.427  40.705
2295.70  24.453  40.705
2296.20  24.401  40.705
2296.70  24.401  40.705
2297.20  24.427  40.705
2297.70  24.427  40.795
2298.20  24.401  40.705
2298.70  24.401  40.705
2299.20  24.427  40.616
2299.70  24.401  40.705
2300.20  24.401  40.705
2300.70  24.401  40.705
2301.20  24.427  40.705
2301.70  24.401  40.705
2302.20  24.401  40.705
2302.70  24.401  40.705
2303.20  24.427  40.705
2303.70  24.401  40.705
2304.20  24.401  40.795
2304.70  24.427  40.705
2305.20  24.401  40.705
2305.70  24.427  40.705
2306.20  24.401  40.616
2306.70  24.401  40.795
2307.20  24.401  40.705
2307.70  24.427  40.705
2308.20  24.401  40.705
2308.70  24.401  40.795
2309.20  24.401  40.616
2309.70  24.401  40.795
2310.20  24.401  40.705
2310.70  24.401  40.705
2311.20  24.427  40.705
2311.70  24.401  40.616
2312.20  24.401  40.616
2312.70  24.375  40.795
2313.20  24.427  40.705
2313.70  24.401  40.705
2314.20  24.401  40.526
2314.70  24.401  40.705
2315.20  24.427  40.795
2315.70  24.401  40.884
2316.20  24.427  40.705
2316.70  24.401  40.705
2317.20  24.401  40.705
2317.70  24.427  40.705
2318.20  24.401  40.616
2318.70  24.427  40.795
2319.20  24.401  40.705
2319.70  24.453  40.705
2320.20  24.401  40.795
2320.70  24.401  40.795
2321.20  24.401  40.795
2321.71  24.401  40.795
2322.21  24.401  40.705
2322.71  24.401  40.795
2323.21  24.401  40.705
2323.71  24.427  40.705
2324.21  24.427  40.795
2324.71  24.401  40.795
2325.21  24.427  40.795
2325.71  24.401  40.884
2326.21  24.427  40.795
2326.71  24.427  40.705
2327.21  24.401  40.795
2327.71  24.401  40.795
2328.21  24.453  40.795
2328.71  24.427  40.705
2329.21  24.401  40.705
2329.71  24.427  40.795
2330.21  24.401  40.795
2330.71  24.401  40.795
2331.21  24.401  40.795
2331.71  24.401  40.705
2332.21  24.453  40.795
2332.71  24.401  40.705
2333.21  24.427  40.795
2333.71  24.401  40.705
2334.21  24.427  40.616
2334.71  24.401  40.884
2335.21  24.375  40.795
2335.71  24.375  40.795
2336.21  24.427  40.795
2336.71  24.427  40.616
2337.21  24.401  40.795
2337.71  24.401  40.705
2338.21  24.401  40.705
2338.71  24.453  40.705
2339.21  24.401  40.884
2339.71  24.375  40.795
2340.21  24.375  40.795
2340.71  24.427  40.705
2341.21  24.401  40.795
2341.71  24.427  40.884
2342.21  24.401  40.795
2342.71  24.453  40.795
2343.21  24.427  40.884
2343.71  24.401  40.705
2344.21  24.401  40.795
2344.71  24.427  40.795
2345.21  24.427  40.705
2345.71  24.427  40.705
2346.21  24.427  40.974
2346.71  24.401  40.795
2347.21  24.427  40.705
2347.71  24.401  40.795
2348.21  24.401  40.795
2348.71  24.401  40.795
2349.21  24.401  40.795
2349.71  24.427  40.795
2350.21  24.375  40.705
2350.71  24.401  40.884
2351.21  24.427  40.795
2351.71  24.401  40.795
2352.21  24.401  40.795
2352.71  24.427  40.795
2353.21  24.401  40.795
2353.71  24.427  40.795
2354.21  24.427  40.795
2354.71  24.427  40.795
2355.21  24.427  40.795
2355.71  24.401  40.795
2356.21  24.427  40.795
2356.71  24.401  40.795
2357.21  24.427  40.884
2357.71  24.427  40.795
2358.21  24.453  40.795
2358.71  24.427  40.795
2359.21  24.427  40.795
2359.71  24.375  40.795
2360.21  24.427  40.705
2360.71  24.375  40.795
2361.21  24.401  40.884
2361.71  24.401  40.795
2362.21  24.427  40.795
2362.71  24.375  40.795
2363.21  24.375  40.884
2363.71  24.427  40.884
2364.21  24.427  40.795
2364.71  24.427  40.795
2365.21  24.401  40.795
2365.71  24.401  40.795
2366.21  24.427  40.795
2366.71  24.479  40.884
2367.21  24.401  40.795
2367.71  24.401  40.795
2368.21  24.401  40.616
2368.71  24.375  40.795
2369.21  24.453  40.884
2369.71  24.401  40.884
2370.21  24.375  40.795
2370.71  24.427  40.795
2371.21  24.427  40.795
2371.71  24.427  40.795
2372.21  24.427  40.974
2372.71  24.401  40.884
2373.21  24.401  40.616
2373.71  24.401  40.795
2374.21  24.401  40.616
2374.71  24.427  40.884
2375.21  24.427  40.616
2375.71  24.427  40.795
2376.21  24.427  40.884
2376.71  24.427  40.974
2377.21  24.401  40.795
2377.71  24.427  40.705
2378.21  24.375  40.795
2378.71  24.427  40.795
2379.21  24.401  40.884
2379.71  24.427  40.795
2380.21  24.427  40.705
2380.71  24.427  40.795
2381.21  24.479  40.795
2381.71  24.401  40.884
2382.21  24.401  40.884
2382.71  24.427  40.884
2383.21  24.453  40.795
2383.71  24.505  40.705
2384.21  24.427  40.884
2384.71  24.427  40.884
2385.21  24.453  40.884
2385.71  24.427  40.795
2386.21  24.427  40.884
2386.71  24.427  40.884
2387.21  24.401  40.795
2387.71  24.453  40.974
2388.21  24.401  40.795
2388.71  24.401  40.795
2389.21  24.427  40.795
2389.71  24.453  40.795
2390.21  24.453  40.974
2390.71  24.427  40.795
2391.21  24.401  40.884
2391.71  24.427  40.795
2392.21  24.427  40.884
2392.71  24.401  40.884
2393.21  24.427  40.884
2393.71  24.401  40.884
2394.21  24.427  40.795
2394.71  24.427  40.884
2395.21  24.427  40.974
2395.71  24.427  40.884
2396.21  24.401  40.795
2396.71  24.427  40.795
2397.21  24.427  40.884
2397.71  24.427  40.795
2398.21  24.453  40.884
2398.71  24.453  40.884
2399.21  24.427  40.795
2399.71  24.401  40.795
2400.21  24.427  40.884
2400.71  24.453  40.795
2401.21  24.453  40.795
2401.71  24.427  40.884
2402.21  24.427  40.884
2402.71  24.427  40.884
2403.21  24.427  40.795
2403.71  24.427  40.884
2404.21  24.401  40.884
2404.71  24.427  40.795
2405.21  24.401  40.974
2405.71  24.427  40.884
2406.21  24.453  40.884
2406.71  24.427  40.795
2407.21  24.427  40.884
2407.71  24.479  40.795
2408.21  24.427  40.795
2408.71  24.401  40.795
2409.21  24.427  40.884
2409.71  24.427  40.795
2410.21  24.401  40.884
2410.71  24.453  40.884
2411.21  24.401  40.705
2411.71  24.401  40.884
2412.21  24.479  40.884
2412.71  24.427  40.795
2413.21  24.427  40.974
2413.71  24.453  40.974
2414.21  24.401  40.795
2414.71  24.401  40.884
2415.21  24.453  40.795
2415.71  24.427  40.884
2416.21  24.401  40.884
2416.71  24.453  40.795
2417.21  24.427  40.884
2417.71  24.427  40.884
2418.21  24.427  40.884
2418.71  24.427  40.884
2419.21  24.453  40.884
2419.71  24.427  40.884
2420.21  24.427  40.795
2420.71  24.427  40.884
2421.21  24.453  40.974
2421.71  24.401  40.884
2422.21  24.453  40.705
2422.71  24.453  40.884
2423.21  24.427  40.884
2423.72  24.453  40.974
2424.22  24.479  40.884
2424.72  24.427  40.884
2425.22  24.427  40.884
2425.72  24.427  40.884
2426.22  24.427  40.884
2426.72  24.427  40.974
2427.22  24.427  40.884
2427.72  24.427  40.884
2428.22  24.453  40.884
2428.72  24.505  40.974
2429.22  24.453  40.884
2429.72  24.427  40.884
2430.22  24.453  40.795
2430.72  24.479  40.795
2431.22  24.427  40.884
2431.72  24.401  40.884
2432.22  24.427  40.884
2432.72  24.427  40.884
2433.22  24.401  40.795
2433.72  24.427  40.884
2434.22  24.401  40.884
2434.72  24.479  40.884
2435.22  24.427  40.884
2435.72  24.427  40.795
2436.22  24.453  40.884
2436.72  24.427  40.884
2437.22  24.401  40.884
2437.72  24.427  40.705
2438.22  24.427  40.795
2438.72  24.427  40.884
2439.22  24.453  40.974
2439.72  24.427  41.153
2440.22  24.453  40.974
2440.72  24.427  40.884
2441.22  24.453  40.974
2441.72  24.427  40.884
2442.22  24.401  40.884
2442.72  24.427  40.884
2443.22  24.453  40.974
2443.72  24.427  40.974
2444.22  24.427  40.974
2444.72  24.427  40.974
2445.22  24.453  40.884
2445.72  24.427  40.974
2446.22  24.401  40.795
2446.72  24.427  40.884
2447.22  24.427  40.884
2447.72  24.401  40.884
2448.22  24.427  40.884
2448.72  24.453  40.974
2449.22  24.479  40.884
2449.72  24.427  40.884
2450.22  24.427  40.884
2450.72  24.531  40.974
2451.22  24.453  40.974
2451.72  24.427  40.884
2452.22  24.427  40.884
2452.72  24.427  40.974
2453.22  24.427  40.974
2453.72  24.427  40.974
2454.22  24.401  40.884
2454.72  24.427  40.884
2455.22  24.453  40.795
2455.72  24.453  40.884
2456.22  24.427  40.974
2456.72  24.427  40.974
2457.22  24.453  40.974
2457.72  24.479  40.974
2458.22  24.401  40.884
2458.72  24.427  40.884
2459.22  24.453  40.974
2459.72  24.479  40.884
2460.22  24.427  40.884
2460.72  24.453  40.884
2461.22  24.453  40.884
2461.72  24.427  40.974
2462.22  24.453  40.974
2462.72  24.427  40.884
2463.22  24.427  40.974
2463.72  24.453  40.884
2464.22  24.427  40.884
2464.72  24.479  40.884
2465.22  24.427  40.884
2465.72  24.427  41.064
2466.22  24.453  40.974
2466.72  24.427  40.974
2467.22  24.453  40.974
2467.72  24.453  40.884
2468.22  24.453  40.974
2468.72  24.427  40.974
2469.22  24.427  40.974
2469.72  24.427  40.884
2470.22  24.427  40.974
2470.72  24.427  40.974
2471.22  24.453  40.884
2471.72  24.427  40.974
2472.22  24.427  40.884
2472.72  24.453  40.974
2473.22  24.453  40.974
2473.72  24.427  40.974
2474.22  24.453  40.884
2474.72  24.453  40.974
2475.22  24.479  40.974
2475.72  24.401  40.884
2476.22  24.505  40.884
2476.72  24.479  40.884
2477.22  24.375  40.884
2477.72  24.427  40.974
2478.22  24.427  40.974
2478.72  24.427  40.974
2479.22  24.401  40.974
2479.72  24.427  40.884
2480.22  24.427  40.884
2480.72  24.427  40.974
2481.22  24.427  40.974
2481.72  24.453  40.974
2482.22  24.427  40.884
2482.72  24.427  40.974
2483.22  24.453  40.974
2483.72  24.427  40.884
2484.22  24.453  40.974
2484.72  24.479  40.884
2485.22  24.453  40.974
2485.72  24.453  40.974
2486.22  24.427  40.884
2486.72  24.453  40.974
2487.22  24.453  40.884
2487.72  24.453  40.974
2488.22  24.427  40.974
2488.72  24.453  40.974
2489.22  24.427  40.974
2489.72  24.453  41.064
2490.22  24.427  40.974
2490.72  24.453  40.974
2491.22  24.453  40.974
2491.72  24.427  40.974
2492.22  24.453  41.064
2492.72  24.453  40.974
2493.22  24.427  40.974
2493.72  24.427  40.884
2494.22  24.505  40.974
2494.72  24.427  40.974
2495.22  24.453  41.064
2495.72  24.427  40.974
2496.22  24.427  40.974
2496.72  24.427  40.974
2497.22  24.427  40.884
2497.72  24.427  40.974
2498.22  24.453  41.243
2498.72  24.427  40.974
2499.22  24.453  40.974
2499.72  24.375  40.974
2500.22  24.427  40.974
2500.72  24.427  41.064
2501.22  24.427  40.884
2501.72  24.427  40.974
