   2.00  23.852  23.581
   2.50  23.826  23.550
   3.00  23.852  23.520
   3.50  23.826  23.581
   4.00  23.852  23.550
   4.50  23.800  23.550
   5.00  23.826  23.581
   5.50  23.826  23.581
   6.00  23.826  23.581
   6.50  23.826  23.550
   7.00  23.852  23.581
   7.50  23.852  23.581
   8.00  23.852  23.581
   8.50  23.826  23.550
   9.00  23.826  23.612
   9.50  23.826  23.550
  10.00  23.852  23.581
  10.50  23.852  23.581
  11.00  23.826  23.550
  11.50  23.826  23.550
  12.00  23.800  23.550
  12.50  23.852  23.581
  13.00  23.826  23.550
  13.50  23.826  23.581
  14.00  23.826  23.581
  14.50  23.826  23.581
  15.00  23.826  23.550
  15.50  23.852  23.550
  16.00  23.878  23.581
  16.50  23.852  23.550
  17.00  23.826  23.550
  17.50  23.852  23.550
  18.00  23.878  23.581
  18.50  23.878  23.581
  19.00  23.878  23.550
  19.50  23.852  23.581
  20.00  23.905  23.550
  20.50  23.931  23.550
  21.00  23.905  23.550
  21.50  23.905  23.550
  22.00  23.931  23.581
  22.50  23.931  23.550
  23.00  23.931  23.550
  23.50  23.957  23.550
  24.00  23.905  23.550
  24.50  23.931  23.550
  25.00  23.957  23.550
  25.50  23.983  23.581
  26.00  23.983  23.520
  26.50  23.957  23.550
  27.00  23.957  23.550
  27.50  23.957  23.581
  28.00  23.983  23.550
  28.50  24.009  23.550
  29.00  23.983  23.550
  29.50  23.983  23.581
  30.00  24.009  23.550
  30.50  23.983  23.550
  31.00  24.009  23.550
  31.50  24.009  23.550
  32.00  24.009  23.581
  32.50  24.009  23.550
  33.00  24.061  23.550
  33.50  24.035  23.581
  34.00  24.035  23.520
  34.50  24.035  23.581
  35.00  24.009  23.550
  35.50  24.035  23.550
  36.00  24.061  23.550
  36.50  24.061  23.550
  37.00  24.061  23.643
  37.50  24.061  23.550
  38.00  24.061  23.581
  38.50  24.061  23.550
  39.00  24.061  23.581
  39.50  24.061  23.550
  40.00  24.087  23.550
  40.50  24.087  23.550
  41.00  24.113  23.550
  41.50  24.087  23.550
  42.00  24.113  23.550
  42.50  24.087  23.550
  43.00  24.113  23.581
  43.50  24.113  23.581
  44.00  24.087  23.581
  44.50  24.113  23.581
  45.00  24.113  23.550
  45.50  24.166  23.550
  46.00  24.140  23.550
  46.50  24.166  23.581
  47.00  24.113  23.489
  47.51  24.113  23.581
  48.01  24.140  23.581
  48.51  24.166  23.550
  49.01  24.166  23.550
  49.51  24.166  23.550
  50.01  24.140  23.550
  50.51  24.140  23.581
  51.01  24.113  23.581
  51.51  24.166  23.550
  52.01  24.166  23.581
  52.51  24.166  23.581
  53.01  24.166  23.581
  53.51  24.166  23.581
  54.01  24.192  23.550
  54.51  24.192  23.581
  55.01  24.192  23.581
  55.51  24.166  23.581
  56.01  24.140  23.550
  56.51  24.192  23.581
  57.01  24.218  23.612
  57.51  24.192  23.581
  58.01  24.244  23.550
  58.51  24.218  23.581
  59.01  24.244  23.550
  59.51  24.244  23.550
  60.01  24.218  23.550
  60.51  24.218  23.581
  61.01  24.244  23.581
  61.51  24.218  23.550
  62.01  24.244  23.520
  62.51  24.244  23.550
  63.01  24.192  23.581
  63.51  24.296  23.550
  64.01  24.244  23.520
  64.51  24.270  23.581
  65.01  24.166  23.581
  65.51  24.270  23.550
  66.01  24.270  23.550
  66.51  24.244  23.581
  67.01  24.270  23.581
  67.51  24.270  23.581
  68.01  24.322  23.612
  68.51  24.296  23.550
  69.01  24.270  23.612
  69.51  24.270  23.550
  70.01  24.296  23.550
  70.51  24.296  23.550
  71.01  24.322  23.550
  71.51  24.296  23.550
  72.01  24.270  23.550
  72.51  24.296  23.550
  73.01  24.322  23.550
  73.51  24.296  23.581
  74.01  24.322  23.550
  74.51  24.348  23.612
  75.01  24.375  23.550
  75.51  24.322  23.581
  76.01  24.296  23.550
  76.51  24.322  23.581
  77.01  24.348  23.581
  77.51  24.296  23.550
  78.01  24.322  23.550
  78.51  24.348  23.581
  79.01  24.348  23.550
  79.51  24.322  23.581
  80.01  24.348  23.581
  80.51  24.322  23.581
  81.01  24.348  23.550
  81.51  24.348  23.550
  82.01  24.322  23.581
  82.51  24.348  23.581
  83.01  24.401  23.581
  83.51  24.322  23.550
  84.01  24.375  23.550
  84.51  24.375  23.550
  85.01  24.401  23.581
  85.51  24.401  23.550
  86.01  24.401  23.520
  86.51  24.401  23.581
  87.01  24.375  23.520
  87.51  24.401  23.581
  88.01  24.401  23.550
  88.51  24.427  23.550
  89.01  24.427  23.550
  89.51  24.401  23.550
  90.01  24.401  23.550
  90.51  24.427  23.550
  91.01  24.427  23.581
  91.51  24.427  23.550
  92.01  24.375  23.581
  92.51  24.401  23.550
  93.01  24.427  23.612
  93.51  24.427  23.581
  94.01  24.401  23.550
  94.51  24.401  23.581
  95.01  24.453  23.612
  95.51  24.453  23.550
  96.01  24.427  23.550
  96.51  24.453  23.520
  97.01  24.453  23.550
  97.51  24.453  23.581
  98.01  24.453  23.612
  98.51  24.427  23.581
  99.01  24.453  23.550
  99.51  24.453  23.581
 100.01  24.453  23.581
 100.51  24.479  23.550
 101.01  24.453  23.581
 101.51  24.479  23.550
 102.01  24.453  23.550
 102.51  24.531  23.581
 103.01  24.479  23.581
 103.51  24.453  23.581
 104.01  24.557  23.550
 104.51  24.505  23.581
 105.01  24.479  23.581
 105.51  24.531  23.550
 106.01  24.479  23.581
 106.51  24.479  23.550
 107.01  24.453  23.550
 107.51  24.557  23.550
 108.01  24.505  23.550
 108.51  24.505  23.520
 109.01  24.505  23.550
 109.51  24.505  23.581
 110.01  24.505  23.550
 110.51  24.505  23.550
 111.01  24.531  23.581
 111.51  24.531  23.581
 112.01  24.505  23.550
 112.51  24.531  23.550
 113.01  24.531  23.550
 113.51  24.531  23.520
 114.01  24.505  23.550
 114.51  24.531  23.550
 115.01  24.505  23.550
 115.51  24.557  23.520
 116.01  24.531  23.550
 116.51  24.531  23.581
 117.01  24.531  23.550
 117.51  24.531  23.550
 118.01  24.557  23.581
 118.51  24.583  23.550
 119.01  24.583  23.550
 119.51  24.557  23.612
 120.01  24.583  23.550
 120.51  24.583  23.550
 121.01  24.531  23.581
 121.51  24.583  23.581
 122.01  24.557  23.550
 122.51  24.557  23.550
 123.01  24.557  23.550
 123.51  24.583  23.550
 124.01  24.557  23.550
 124.51  24.583  23.550
 125.01  24.583  23.550
 125.51  24.610  23.550
 126.01  24.583  23.550
 126.51  24.610  23.581
 127.01  24.610  23.520
 127.51  24.583  23.550
 128.01  24.583  23.520
 128.51  24.583  23.550
 129.01  24.583  23.550
 129.51  24.583  23.581
 130.01  24.610  23.550
 130.51  24.610  23.550
 131.01  24.583  23.550
 131.51  24.662  23.581
 132.01  24.610  23.581
 132.51  24.610  23.550
 133.01  24.583  23.520
 133.51  24.636  23.550
 134.01  24.610  23.489
 134.51  24.662  23.550
 135.01  24.636  23.550
 135.51  24.557  23.520
 136.01  24.636  23.581
 136.51  24.662  23.581
 137.01  24.688  23.550
 137.51  24.636  23.550
 138.01  24.636  23.550
 138.51  24.636  23.612
 139.01  24.636  23.550
 139.51  24.636  23.550
 140.01  24.662  23.550
 140.51  24.688  23.550
 141.01  24.636  23.550
 141.51  24.662  23.550
 142.01  24.636  23.550
 142.51  24.636  23.520
 143.01  24.636  23.550
 143.51  24.714  23.581
 144.01  24.636  23.550
 144.51  24.636  23.550
 145.01  24.662  23.550
 145.51  24.688  23.550
 146.01  24.688  23.550
 146.51  24.662  23.550
 147.01  24.714  23.550
 147.51  24.662  23.581
 148.01  24.688  23.581
 148.51  24.662  23.612
 149.01  24.688  23.581
 149.51  24.688  23.550
 150.01  24.714  23.550
 150.51  24.714  23.550
 151.01  24.688  23.550
 151.51  24.714  23.581
 152.01  24.688  23.581
 152.51  24.688  23.581
 153.01  24.740  23.581
 153.51  24.740  23.550
 154.01  24.688  23.550
 154.51  24.714  23.550
 155.01  24.714  23.550
 155.51  24.714  23.550
 156.01  24.714  23.581
 156.51  24.740  23.581
 157.01  24.740  23.550
 157.51  24.740  23.550
 158.01  24.740  23.581
 158.51  24.714  23.550
 159.01  24.740  23.581
 159.51  24.740  23.550
 160.01  24.740  23.550
 160.51  24.766  23.581
 161.01  24.792  23.581
 161.51  24.740  23.550
 162.01  24.714  23.550
 162.51  24.740  23.581
 163.01  24.792  23.581
 163.51  24.792  23.550
 164.01  24.766  23.581
 164.51  24.766  23.520
 165.01  24.766  23.581
 165.51  24.766  23.581
 166.01  24.792  23.550
 166.51  24.792  23.550
 167.01  24.792  23.550
 167.51  24.766  23.581
 168.01  24.792  23.581
 168.51  24.792  23.550
 169.01  24.819  23.581
 169.51  24.740  23.581
 170.01  24.792  23.581
 170.51  24.819  23.581
 171.01  24.792  23.550
 171.52  24.792  23.550
 172.02  24.792  23.581
 172.52  24.792  23.550
 173.02  24.792  23.581
 173.52  24.792  23.581
 174.02  24.819  23.550
 174.52  24.819  23.520
 175.02  24.845  23.581
 175.52  24.819  23.520
 176.02  24.766  23.520
 176.52  24.792  23.550
 177.02  24.845  23.581
 177.52  24.792  23.581
 178.02  24.662  23.550
 178.52  24.819  23.520
 179.02  24.819  23.550
 179.52  24.819  23.550
 180.02  24.845  23.581
 180.52  24.845  23.550
 181.02  24.845  23.489
 181.52  24.871  23.550
 182.02  24.845  23.581
 182.52  24.845  23.581
 183.02  24.819  23.550
 183.52  24.845  23.550
 184.02  24.792  23.550
 184.52  24.819  23.581
 185.02  24.897  23.581
 185.52  24.871  23.550
 186.02  24.871  23.581
 186.52  24.845  23.550
 187.02  24.845  23.520
 187.52  24.871  23.581
 188.02  24.897  23.550
 188.52  24.871  23.581
 189.02  24.897  23.550
 189.52  24.871  23.520
 190.02  24.871  23.643
 190.52  24.819  23.550
 191.02  24.871  23.550
 191.52  24.871  23.550
 192.02  24.871  23.581
 192.52  24.871  23.550
 193.02  24.871  23.550
 193.52  24.871  23.550
 194.02  24.897  23.550
 194.52  24.871  23.581
 195.02  24.897  23.581
 195.52  24.897  23.550
 196.02  24.871  23.550
 196.52  24.923  23.581
 197.02  24.897  23.550
 197.52  24.897  23.550
 198.02  24.897  23.550
 198.52  24.897  23.550
 199.02  24.923  23.581
 199.52  24.923  23.581
 200.02  24.923  23.550
 200.52  24.923  23.550
 201.02  24.923  23.550
 201.52  24.923  23.581
 202.02  24.897  23.612
 202.52  24.949  23.581
 203.02  24.897  23.550
 203.52  24.949  23.550
 204.02  24.923  23.581
 204.52  24.923  23.581
 205.02  24.949  23.550
 205.52  24.949  23.550
 206.02  24.923  23.550
 206.52  24.949  23.550
 207.02  24.975  23.550
 207.52  24.949  23.581
 208.02  24.975  23.550
 208.52  24.923  23.550
 209.02  24.923  23.550
 209.52  24.949  23.550
 210.02  24.949  23.550
 210.52  24.975  23.581
 211.02  24.975  23.581
 211.52  24.975  23.550
 212.02  24.949  23.581
 212.52  24.975  23.550
 213.02  24.949  23.581
 213.52  24.975  23.581
 214.02  24.975  23.550
 214.52  24.975  23.581
 215.02  24.975  23.550
 215.52  24.975  23.550
 216.02  25.005  23.581
 216.52  24.975  23.520
 217.02  24.975  23.550
 217.52  24.975  23.581
 218.02  24.975  23.581
 218.52  25.005  23.550
 219.02  25.005  23.550
 219.52  25.005  23.550
 220.02  24.975  23.550
 220.52  25.005  23.581
 221.02  25.005  23.581
 221.52  25.005  23.550
 222.02  25.005  23.550
 222.52  25.222  23.520
 223.02  25.114  23.581
 223.52  25.438  23.520
 224.02  25.222  23.550
 224.52  25.005  23.550
 225.02  25.114  23.550
 225.52  25.114  23.520
 226.02  25.114  23.612
 226.52  25.222  23.550
 227.02  25.114  23.550
 227.52  25.114  23.550
 228.02  25.114  23.581
 228.52  25.222  23.550
 229.02  25.114  23.581
 229.52  25.114  23.550
 230.02  25.222  23.581
 230.52  25.222  23.581
 231.02  25.114  23.550
 231.52  25.114  23.581
 232.02  25.222  23.581
 232.52  25.114  23.550
 233.02  25.330  23.550
 233.52  25.330  23.550
 234.02  25.114  23.550
 234.52  25.114  23.550
 235.02  25.114  23.550
 235.52  25.222  23.550
 236.02  25.222  23.520
 236.52  25.222  23.581
 237.02  25.330  23.581
 237.52  25.222  23.550
 238.02  25.222  23.520
 238.52  25.330  23.550
 239.02  25.222  23.550
 239.52  25.330  23.581
 240.02  25.330  23.581
 240.52  25.330  23.581
 241.02  25.330  23.550
 241.52  25.438  23.550
 242.02  25.330  23.550
 242.52  25.438  23.550
 243.02  25.222  23.550
 243.52  25.547  23.550
 244.02  25.438  23.550
 244.52  25.438  23.581
 245.02  25.330  23.581
 245.52  25.438  23.581
 246.02  25.330  23.581
 246.52  25.438  23.550
 247.02  25.438  23.550
 247.52  25.438  23.550
 248.02  25.330  23.581
 248.52  25.438  23.550
 249.02  25.547  23.581
 249.52  25.547  23.550
 250.02  25.547  23.581
 250.52  25.438  23.550
 251.02  25.547  23.550
 251.52  25.547  23.550
 252.02  25.438  23.581
 252.52  25.547  23.581
 253.02  25.438  23.550
 253.52  25.547  23.581
 254.02  25.547  23.550
 254.52  25.547  23.550
 255.02  25.655  23.520
 255.52  25.438  23.520
 256.02  25.547  23.550
 256.52  25.547  23.550
 257.02  25.763  23.581
 257.52  25.655  23.612
 258.02  25.547  23.550
 258.52  25.655  23.581
 259.02  25.547  23.612
 259.52  25.655  23.520
 260.02  25.547  23.581
 260.52  25.547  23.550
 261.02  25.655  23.581
 261.52  25.763  23.550
 262.02  25.655  23.550
 262.52  25.655  23.550
 263.02  25.763  23.612
 263.52  25.763  23.581
 264.02  25.763  23.581
 264.52  25.763  23.550
 265.02  25.763  23.581
 265.52  25.763  23.550
 266.02  25.655  23.581
 266.52  25.763  23.612
 267.02  25.763  23.550
 267.52  25.763  23.581
 268.02  25.871  23.550
 268.52  25.763  23.581
 269.02  25.655  23.581
 269.52  25.655  23.550
 270.02  25.871  23.581
 270.52  25.763  23.550
 271.02  25.655  23.581
 271.52  25.871  23.581
 272.02  25.871  23.581
 272.52  25.871  23.581
 273.02  25.763  23.612
 273.52  25.980  23.550
 274.02  25.763  23.612
 274.52  25.871  23.550
 275.02  25.871  23.581
 275.52  25.763  23.550
 276.02  25.871  23.550
 276.52  25.871  23.550
 277.02  25.871  23.581
 277.52  25.871  23.520
 278.02  25.871  23.581
 278.52  25.871  23.550
 279.02  25.871  23.520
 279.52  25.980  23.520
 280.02  25.763  23.520
 280.52  25.871  23.581
 281.02  25.980  23.581
 281.52  25.871  23.581
 282.02  25.980  23.550
 282.52  25.763  23.550
 283.02  25.980  23.550
 283.52  25.871  23.550
 284.02  25.980  23.581
 284.52  25.871  23.581
 285.03  25.871  23.550
 285.53  26.088  23.581
 286.03  26.088  23.550
 286.53  26.088  23.581
 287.03  26.088  23.581
 287.53  26.088  23.550
 288.03  25.980  23.550
 288.53  25.980  23.581
 289.03  26.088  23.550
 289.53  25.871  23.550
 290.03  26.196  23.581
 290.53  26.088  23.581
 291.03  26.088  23.550
 291.53  26.196  23.581
 292.03  26.088  23.581
 292.53  26.088  23.550
 293.03  26.088  23.550
 293.53  26.088  23.550
 294.03  26.196  23.581
 294.53  26.088  23.581
 295.03  26.196  23.581
 295.53  26.304  23.550
 296.03  25.980  23.581
 296.53  26.196  23.581
 297.03  26.304  23.581
 297.53  26.196  23.550
 298.03  26.196  23.550
 298.53  26.196  23.520
 299.03  26.196  23.550
 299.53  26.196  23.550
 300.03  26.196  23.550
 300.53  26.088  23.581
 301.03  26.196  23.550
 301.53  26.088  23.581
 302.03  26.196  23.550
 302.53  26.196  23.550
 303.03  26.196  23.520
 303.53  26.196  23.550
 304.03  26.088  23.550
 304.53  26.088  23.550
 305.03  26.304  23.550
 305.53  26.196  23.550
 306.03  26.304  23.550
 306.53  26.413  23.550
 307.03  26.304  23.581
 307.53  26.304  23.550
 308.03  26.196  23.581
 308.53  26.304  23.520
 309.03  26.304  23.581
 309.53  26.413  23.550
 310.03  26.413  23.581
 310.53  26.304  23.550
 311.03  26.413  23.550
 311.53  26.304  23.550
 312.03  26.413  23.550
 312.53  26.413  23.550
 313.03  26.521  23.550
 313.53  26.196  23.550
 314.03  26.304  23.550
 314.53  26.413  23.550
 315.03  26.413  23.550
 315.53  26.413  23.550
 316.03  26.304  23.550
 316.53  26.413  23.550
 317.03  26.413  23.581
 317.53  26.413  23.581
 318.03  26.304  23.550
 318.53  26.304  23.581
 319.03  26.521  23.550
 319.53  26.521  23.550
 320.03  26.521  23.581
 320.53  26.521  23.581
 321.03  26.521  23.550
 321.53  26.413  23.550
 322.03  26.846  23.550
 322.53  26.629  23.550
 323.03  26.304  23.520
 323.53  26.521  23.550
 324.03  26.737  23.550
 324.53  26.413  23.550
 325.03  26.413  23.550
 325.53  26.521  23.550
 326.03  26.629  23.550
 326.53  26.629  23.581
 327.03  26.521  23.581
 327.53  26.629  23.550
 328.03  26.521  23.581
 328.53  26.521  23.581
 329.03  26.629  23.550
 329.53  26.521  23.612
 330.03  26.413  23.581
 330.53  26.629  23.581
 331.03  26.521  23.550
 331.53  26.737  23.550
 332.03  26.521  23.581
 332.53  26.629  23.550
 333.03  26.521  23.581
 333.53  26.629  23.550
 334.03  26.846  23.550
 334.53  26.629  23.581
 335.03  26.846  23.581
 335.53  26.629  23.520
 336.03  26.737  23.550
 336.53  26.737  23.581
 337.03  26.737  23.581
 337.53  26.629  23.550
 338.03  26.629  23.550
 338.53  26.737  23.550
 339.03  26.629  23.520
 339.53  26.737  23.581
 340.03  26.737  23.581
 340.53  26.629  23.550
 341.03  26.737  23.550
 341.53  26.846  23.581
 342.03  26.846  23.550
 342.53  26.846  23.550
 343.03  26.737  23.550
 343.53  26.846  23.550
 344.03  26.846  23.581
 344.53  26.737  23.550
 345.03  26.629  23.550
 345.53  26.737  23.550
 346.03  26.521  23.581
 346.53  26.954  23.550
 347.03  26.737  23.550
 347.53  26.846  23.550
 348.03  26.954  23.550
 348.53  26.954  23.612
 349.03  26.846  23.550
 349.53  26.846  23.520
 350.03  26.954  23.581
 350.53  26.846  23.612
 351.03  26.846  23.581
 351.53  26.954  23.674
 352.03  26.954  23.581
 352.53  26.954  23.581
 353.03  26.954  23.581
 353.53  27.062  23.550
 354.03  26.954  23.581
 354.53  26.954  23.581
 355.03  26.737  23.550
 355.53  26.954  23.520
 356.03  26.846  23.550
 356.53  26.954  23.581
 357.03  26.954  23.581
 357.53  26.954  23.550
 358.03  26.954  23.612
 358.53  27.062  23.612
 359.03  26.846  23.581
 359.53  27.062  23.581
 360.03  27.062  23.581
 360.53  26.954  23.550
 361.03  27.062  23.581
 361.53  26.954  23.581
 362.03  27.062  23.550
 362.53  27.062  23.550
 363.03  26.846  23.581
 363.53  27.062  23.581
 364.03  26.737  23.581
 364.53  27.062  23.612
 365.03  26.954  23.550
 365.53  27.062  23.550
 366.03  27.170  23.581
 366.53  27.170  23.612
 367.03  27.170  23.581
 367.53  27.062  23.550
 368.03  27.170  23.581
 368.53  27.170  23.550
 369.03  27.062  23.581
 369.53  26.954  23.581
 370.03  27.062  23.581
 370.53  27.062  23.550
 371.03  27.170  23.581
 371.53  27.170  23.581
 372.03  27.062  23.581
 372.53  27.062  23.550
 373.03  27.279  23.550
 373.53  27.062  23.581
 374.03  27.170  23.581
 374.53  27.387  23.581
 375.03  27.279  23.581
 375.53  27.170  23.581
 376.03  27.170  23.550
 376.53  27.279  23.550
 377.03  27.170  23.581
 377.53  27.170  23.550
 378.03  27.170  23.581
 378.53  27.387  23.581
 379.03  27.279  23.520
 379.53  27.170  23.581
 380.03  27.170  23.612
 380.53  27.279  23.550
 381.03  27.170  23.581
 381.53  27.279  23.581
 382.03  27.279  23.581
 382.53  27.170  23.550
 383.03  27.387  23.550
 383.53  27.062  23.581
 384.03  27.062  23.550
 384.53  27.279  23.674
 385.03  27.387  23.581
 385.53  27.279  23.550
 386.03  27.279  23.550
 386.53  27.279  23.581
 387.04  27.279  23.612
 387.54  27.279  23.581
 388.04  27.387  23.550
 388.54  27.279  23.550
 389.04  27.279  23.581
 389.54  27.387  23.612
 390.04  27.279  23.550
 390.54  27.279  23.612
 391.04  27.170  23.550
 391.54  27.279  23.581
 392.04  27.387  23.581
 392.54  27.387  23.581
 393.04  27.387  23.550
 393.54  27.387  23.581
 394.04  27.279  23.581
 394.54  27.387  23.581
 395.04  27.387  23.550
 395.54  27.387  23.581
 396.04  27.603  23.581
 396.54  27.279  23.581
 397.04  27.279  23.581
 397.54  27.387  23.550
 398.04  27.387  23.550
 398.54  27.495  23.520
 399.04  27.279  23.550
 399.54  27.495  23.550
 400.04  27.495  23.612
 400.54  27.495  23.550
 401.04  27.603  23.550
 401.54  27.495  23.550
 402.04  27.495  23.550
 402.54  27.603  23.581
 403.04  27.387  23.550
 403.54  27.495  23.550
 404.04  27.387  23.550
 404.54  27.495  23.550
 405.04  27.495  23.550
 405.54  27.387  23.550
 406.04  27.387  23.581
 406.54  27.495  23.550
 407.04  27.495  23.550
 407.54  27.603  23.581
 408.04  27.495  23.550
 408.54  27.603  23.612
 409.04  27.603  23.581
 409.54  27.603  23.581
 410.04  27.495  23.581
 410.54  27.495  23.581
 411.04  27.712  23.550
 411.54  27.603  23.581
 412.04  27.495  23.581
 412.54  27.712  23.581
 413.04  27.603  23.550
 413.54  27.603  23.581
 414.04  27.495  23.581
 414.54  27.603  23.581
 415.04  27.603  23.581
 415.54  27.603  23.612
 416.04  27.495  23.550
 416.54  27.603  23.550
 417.04  27.603  23.550
 417.54  27.820  23.581
 418.04  27.712  23.581
 418.54  27.603  23.581
 419.04  27.603  23.581
 419.54  27.712  23.550
 420.04  27.712  23.581
 420.54  27.820  23.550
 421.04  27.603  23.550
 421.54  27.820  23.520
 422.04  27.712  23.550
 422.54  27.820  23.581
 423.04  27.820  23.581
 423.54  27.603  23.550
 424.04  27.712  23.581
 424.54  27.712  23.581
 425.04  27.712  23.581
 425.54  27.603  23.550
 426.04  27.712  23.643
 426.54  27.820  23.581
 427.04  27.820  23.550
 427.54  27.820  23.550
 428.04  27.712  23.581
 428.54  27.495  23.550
 429.04  27.928  23.581
 429.54  27.712  23.550
 430.04  27.820  23.612
 430.54  27.712  23.581
 431.04  27.928  23.612
 431.54  27.603  23.581
 432.04  27.603  23.550
 432.54  27.820  23.581
 433.04  27.712  23.612
 433.54  27.820  23.550
 434.04  27.820  23.520
 434.54  27.820  23.550
 435.04  27.928  23.581
 435.54  27.820  23.550
 436.04  27.712  23.581
 436.54  28.036  23.581
 437.04  27.820  23.581
 437.54  27.928  23.581
 438.04  27.928  23.612
 438.54  27.928  23.581
 439.04  27.820  23.581
 439.54  27.712  23.520
 440.04  27.928  23.581
 440.54  27.928  23.581
 441.04  27.928  23.581
 441.54  27.820  23.581
 442.04  27.928  23.581
 442.54  27.712  23.581
 443.04  27.820  23.550
 443.54  27.820  23.550
 444.04  27.928  23.581
 444.54  27.928  23.550
 445.04  27.928  23.581
 445.54  27.928  23.612
 446.04  27.820  23.612
 446.54  28.036  23.581
 447.04  27.928  23.581
 447.54  27.928  23.581
 448.04  27.928  23.581
 448.54  27.928  23.550
 449.04  27.928  23.581
 449.54  28.036  23.581
 450.04  27.928  23.550
 450.54  27.820  23.581
 451.04  28.036  23.520
 451.54  27.928  23.612
 452.04  27.820  23.581
 452.54  28.145  23.550
 453.04  28.036  23.581
 453.54  28.036  23.581
 454.04  28.036  23.581
 454.54  28.036  23.550
 455.04  28.036  23.581
 455.54  28.036  23.581
 456.04  27.928  23.550
 456.54  28.145  23.550
 457.04  28.036  23.550
 457.54  28.036  23.550
 458.04  28.036  23.550
 458.54  27.928  23.581
 459.04  28.036  23.581
 459.54  28.036  23.612
 460.04  28.036  23.612
 460.54  28.036  23.581
 461.04  28.036  23.550
 461.54  28.036  23.612
 462.04  27.928  23.550
 462.54  28.036  23.550
 463.04  28.145  23.550
 463.54  28.145  23.550
 464.04  28.145  23.581
 464.54  28.145  23.612
 465.04  28.036  23.550
 465.54  28.036  23.581
 466.04  28.253  23.581
 466.54  28.145  23.550
 467.04  28.036  23.581
 467.54  28.145  23.581
 468.04  28.145  23.581
 468.54  28.036  23.612
 469.04  28.145  23.612
 469.54  28.253  23.550
 470.04  28.145  23.581
 470.54  28.253  23.612
 471.04  28.253  23.581
 471.54  28.253  23.581
 472.04  28.253  23.550
 472.54  28.253  23.581
 473.04  28.253  23.581
 473.54  28.253  23.581
 474.04  28.253  23.581
 474.54  28.361  23.581
 475.04  28.253  23.550
 475.54  28.145  23.581
 476.04  27.928  23.581
 476.54  28.253  23.550
 477.04  28.253  23.581
 477.54  28.253  23.581
 478.04  28.253  23.520
 478.54  28.253  23.581
 479.04  28.253  23.581
 479.54  28.253  23.550
 480.04  28.361  23.581
 480.54  28.253  23.581
 481.04  28.253  23.581
 481.54  28.253  23.581
 482.04  28.361  23.581
 482.54  28.361  23.581
 483.04  28.361  23.612
 483.54  28.253  23.550
 484.04  28.361  23.581
 484.54  28.361  23.581
 485.04  28.361  23.581
 485.54  28.361  23.581
 486.04  28.253  23.581
 486.54  28.361  23.550
 487.04  28.361  23.612
 487.54  28.253  23.581
 488.04  28.253  23.581
 488.54  28.361  23.581
 489.04  28.361  23.581
 489.54  28.361  23.581
 490.04  28.469  23.581
 490.54  28.253  23.550
 491.04  28.361  23.550
 491.54  28.361  23.581
 492.04  28.253  23.581
 492.54  28.361  23.550
 493.04  28.253  23.581
 493.54  28.361  23.581
 494.04  28.361  23.581
 494.54  28.361  23.581
 495.04  28.469  23.581
 495.54  28.361  23.612
 496.04  28.361  23.581
 496.54  28.469  23.581
 497.04  28.469  23.612
 497.54  28.361  23.581
 498.04  28.578  23.581
 498.54  28.469  23.550
 499.04  28.361  23.581
 499.54  28.469  23.581
 500.05  28.469  23.581
 500.55  28.469  23.612
 501.05  28.361  23.520
 501.55  28.361  23.612
 502.05  28.469  23.581
 502.55  28.469  23.581
 503.05  28.578  23.581
 503.55  28.469  23.550
 504.05  28.469  23.520
 504.55  28.469  23.581
 505.05  28.469  23.581
 505.55  28.469  23.581
 506.05  28.469  23.581
 506.55  28.469  23.550
 507.05  28.578  23.550
 507.55  28.686  23.581
 508.05  28.361  23.581
 508.55  28.578  23.550
 509.05  28.361  23.550
 509.55  28.469  23.581
 510.05  28.469  23.581
 510.55  28.469  23.550
 511.05  28.469  23.581
 511.55  28.578  23.581
 512.05  28.578  23.550
 512.55  28.469  23.581
 513.05  28.578  23.581
 513.55  28.578  23.550
 514.05  28.794  23.581
 514.55  28.578  23.581
 515.05  28.578  23.550
 515.55  28.469  23.581
 516.05  28.578  23.581
 516.55  28.578  23.581
 517.05  28.578  23.550
 517.55  28.578  23.581
 518.05  28.686  23.581
 518.55  28.578  23.612
 519.05  28.794  23.581
 519.55  28.686  23.581
 520.05  28.578  23.581
 520.55  28.578  23.581
 521.05  28.686  23.581
 521.55  28.686  23.581
 522.05  28.686  23.612
 522.55  28.794  23.581
 523.05  28.794  23.581
 523.55  28.578  23.520
 524.05  28.794  23.581
 524.55  28.686  23.581
 525.05  28.794  23.550
 525.55  28.686  23.612
 526.05  28.794  23.581
 526.55  28.469  23.550
 527.05  28.578  23.581
 527.55  28.794  23.581
 528.05  28.686  23.581
 528.55  28.794  23.550
 529.05  28.686  23.550
 529.55  28.686  23.550
 530.05  28.794  23.581
 530.55  28.794  23.581
 531.05  28.794  23.581
 531.55  28.686  23.612
 532.05  28.794  23.550
 532.55  28.902  23.612
 533.05  28.902  23.581
 533.55  28.686  23.550
 534.05  28.794  23.550
 534.55  28.686  23.581
 535.05  28.794  23.581
 535.55  28.794  23.581
 536.05  28.794  23.581
 536.55  28.794  23.581
 537.05  28.794  23.581
 537.55  28.794  23.612
 538.05  28.686  23.612
 538.55  28.794  23.612
 539.05  28.902  23.550
 539.55  28.794  23.612
 540.05  28.794  23.581
 540.55  28.686  23.581
 541.05  28.902  23.581
 541.55  28.794  23.550
 542.05  28.902  23.520
 542.55  28.794  23.581
 543.05  28.902  23.612
 543.55  28.794  23.520
 544.05  28.902  23.581
 544.55  28.794  23.674
 545.05  28.902  23.581
 545.55  28.902  23.581
 546.05  28.902  23.581
 546.55  28.794  23.581
 547.05  28.794  23.612
 547.55  28.902  23.581
 548.05  29.119  23.612
 548.55  28.902  23.581
 549.05  28.902  23.581
 549.55  28.902  23.581
 550.05  28.902  23.643
 550.55  29.011  23.550
 551.05  29.011  23.581
 551.55  28.902  23.581
 552.05  28.902  23.581
 552.55  28.902  23.550
 553.05  28.902  23.581
 553.55  28.902  23.550
 554.05  28.794  23.581
 554.55  29.011  23.581
 555.05  28.902  23.550
 555.55  28.902  23.581
 556.05  29.011  23.581
 556.55  29.011  23.581
 557.05  29.119  23.550
 557.55  29.011  23.581
 558.05  29.011  23.550
 558.55  29.011  23.550
 559.05  28.902  23.581
 559.55  29.011  23.550
 560.05  28.902  23.643
 560.55  29.119  23.581
 561.05  28.902  23.581
 561.55  29.011  23.612
 562.05  29.011  23.581
 562.55  29.011  23.581
 563.05  29.011  23.581
 563.55  29.011  23.581
 564.05  29.227  23.550
 564.55  29.011  23.612
 565.05  29.119  23.550
 565.55  29.119  23.550
 566.05  29.119  23.581
 566.55  29.011  23.581
 567.05  29.119  23.581
 567.55  29.119  23.612
 568.05  29.119  23.581
 568.55  29.227  23.612
 569.05  29.227  23.581
 569.55  28.902  23.612
 570.05  29.119  23.581
 570.55  29.119  23.581
 571.05  29.227  23.581
 571.55  29.119  23.612
 572.05  29.119  23.581
 572.55  29.119  23.581
 573.05  29.119  23.581
 573.55  29.335  23.581
 574.05  29.119  23.550
 574.55  29.119  23.581
 575.05  29.119  23.581
 575.55  29.335  23.581
 576.05  29.227  23.581
 576.55  29.227  23.581
 577.05  29.335  23.581
 577.55  29.227  23.581
 578.05  29.119  23.612
 578.55  29.227  23.581
 579.05  29.119  23.612
 579.55  29.227  23.581
 580.05  29.227  23.581
 580.55  29.119  23.550
 581.05  29.119  23.581
 581.55  29.227  23.612
 582.05  29.335  23.612
 582.55  29.119  23.581
 583.05  29.227  23.612
 583.55  29.227  23.581
 584.05  29.119  23.705
 584.55  29.227  23.581
 585.05  29.444  23.581
 585.55  29.227  23.581
 586.05  29.335  23.581
 586.55  29.335  23.581
 587.05  29.227  23.581
 587.55  29.227  23.581
 588.05  29.335  23.581
 588.55  29.227  23.581
 589.05  29.335  23.581
 589.55  29.119  23.581
 590.05  29.119  23.581
 590.55  29.227  23.581
 591.05  29.227  23.581
 591.55  29.227  23.612
 592.05  29.335  23.581
 592.55  29.552  23.581
 593.05  29.335  23.581
 593.55  29.335  23.581
 594.05  29.335  23.581
 594.55  29.335  23.643
 595.05  29.335  23.612
 595.55  29.335  23.612
 596.05  29.227  23.581
 596.55  29.444  23.581
 597.05  29.335  23.643
 597.55  29.335  23.581
 598.05  29.227  23.612
 598.55  29.227  23.581
 599.05  29.335  23.581
 599.55  29.335  23.612
 600.05  29.227  23.581
 600.55  29.335  23.581
 601.05  29.444  23.581
 601.55  29.335  23.581
 602.05  29.335  23.550
 602.55  29.335  23.612
 603.05  29.444  23.550
 603.55  29.335  23.581
 604.05  29.335  23.612
 604.55  29.227  23.581
 605.05  29.227  23.612
 605.55  29.444  23.581
 606.05  29.335  23.581
 606.55  29.444  23.612
 607.05  29.444  23.612
 607.55  29.552  23.612
 608.05  29.335  23.612
 608.55  29.335  23.643
 609.05  29.335  23.520
 609.55  29.335  23.612
 610.05  29.444  23.581
 610.55  29.444  23.550
 611.05  29.444  23.581
 611.55  29.444  23.612
 612.05  29.444  23.612
 612.55  29.335  23.612
 613.05  29.444  23.581
 613.55  29.335  23.581
 614.05  29.335  23.550
 614.55  29.660  23.581
 615.05  29.552  23.581
 615.55  29.444  23.581
 616.05  29.552  23.581
 616.55  29.444  23.581
 617.05  29.444  23.581
 617.55  29.444  23.581
 618.05  29.444  23.612
 618.55  29.552  23.581
 619.05  29.552  23.581
 619.55  29.552  23.581
 620.05  29.335  23.581
 620.55  29.444  23.643
 621.05  29.444  23.581
 621.55  29.335  23.550
 622.05  29.335  23.581
 622.55  29.444  23.581
 623.05  29.444  23.612
 623.55  29.227  23.581
 624.05  29.444  23.581
 624.56  29.444  23.550
 625.06  29.335  23.581
 625.56  29.444  23.581
 626.06  29.444  23.550
 626.56  29.552  23.643
 627.06  29.227  23.612
 627.56  29.552  23.612
 628.06  29.552  23.581
 628.56  29.552  23.581
 629.06  29.552  23.581
 629.56  29.552  23.612
 630.06  29.660  23.581
 630.56  29.552  23.643
 631.06  29.552  23.581
 631.56  29.552  23.581
 632.06  29.552  23.581
 632.56  29.444  23.581
 633.06  29.660  23.643
 633.56  29.552  23.581
 634.06  29.444  23.581
 634.56  29.552  23.581
 635.06  29.660  23.612
 635.56  29.552  23.550
 636.06  29.660  23.581
 636.56  29.660  23.581
 637.06  29.552  23.612
 637.56  29.552  23.612
 638.06  29.552  23.581
 638.56  29.660  23.612
 639.06  29.768  23.612
 639.56  29.552  23.581
 640.06  29.660  23.550
 640.56  29.552  23.612
 641.06  29.552  23.550
 641.56  29.768  23.581
 642.06  29.768  23.612
 642.56  29.552  23.612
 643.06  29.768  23.581
 643.56  29.660  23.581
 644.06  29.660  23.581
 644.56  29.552  23.612
 645.06  29.660  23.643
 645.56  29.660  23.581
 646.06  29.660  23.581
 646.56  29.660  23.581
 647.06  29.552  23.612
 647.56  29.660  23.612
 648.06  29.552  23.581
 648.56  29.768  23.581
 649.06  29.660  23.612
 649.56  29.660  23.581
 650.06  29.768  23.612
 650.56  29.660  23.612
 651.06  29.768  23.581
 651.56  29.768  23.581
 652.06  29.660  23.612
 652.56  29.552  23.643
 653.06  29.768  23.612
 653.56  29.660  23.550
 654.06  29.660  23.581
 654.56  29.768  23.612
 655.06  29.768  23.581
 655.56  29.877  23.612
 656.06  29.877  23.612
 656.56  29.660  23.581
 657.06  29.768  23.581
 657.56  29.768  23.612
 658.06  29.768  23.581
 658.56  29.877  23.612
 659.06  29.660  23.581
 659.56  29.768  23.643
 660.06  29.768  23.550
 660.56  29.768  23.581
 661.06  29.768  23.581
 661.56  29.877  23.581
 662.06  29.768  23.612
 662.56  29.768  23.581
 663.06  29.768  23.581
 663.56  29.768  23.581
 664.06  29.768  23.581
 664.56  29.768  23.581
 665.06  29.877  23.581
 665.56  29.877  23.581
 666.06  29.768  23.581
 666.56  29.768  23.643
 667.06  29.877  23.612
 667.56  29.768  23.581
 668.06  29.552  23.581
 668.56  29.985  23.612
 669.06  29.877  23.581
 669.56  29.985  23.643
 670.06  29.768  23.612
 670.56  29.768  23.581
 671.06  29.768  23.612
 671.56  29.985  23.550
 672.06  29.768  23.581
 672.56  29.877  23.550
 673.06  29.768  23.581
 673.56  29.768  23.581
 674.06  29.768  23.612
 674.56  29.768  23.581
 675.06  29.985  23.581
 675.56  29.877  23.581
 676.06  29.768  23.550
 676.56  29.877  23.581
 677.06  29.877  23.581
 677.56  29.660  23.581
 678.06  29.768  23.581
 678.56  29.877  23.612
 679.06  29.877  23.581
 679.56  29.877  23.581
 680.06  29.877  23.612
 680.56  29.877  23.643
 681.06  29.985  23.612
 681.56  29.985  23.612
 682.06  29.877  23.581
 682.56  29.877  23.612
 683.06  29.768  23.612
 683.56  29.877  23.612
 684.06  29.985  23.612
 684.56  29.877  23.581
 685.06  29.985  23.612
 685.56  29.985  23.581
 686.06  29.985  23.581
 686.56  29.768  23.643
 687.06  29.877  23.612
 687.56  29.877  23.612
 688.06  29.985  23.581
 688.56  29.985  23.643
 689.06  29.768  23.581
 689.56  29.877  23.581
 690.06  29.877  23.581
 690.56  29.768  23.612
 691.06  29.985  23.612
 691.56  30.101  23.581
 692.06  29.985  23.581
 692.56  29.985  23.581
 693.06  29.877  23.581
 693.56  29.985  23.550
 694.06  29.877  23.581
 694.56  29.985  23.581
 695.06  29.985  23.581
 695.56  30.101  23.612
 696.06  29.985  23.612
 696.56  30.101  23.612
 697.06  30.101  23.612
 697.56  29.985  23.581
 698.06  29.877  23.550
 698.56  29.985  23.612
 699.06  29.985  23.612
 699.56  30.101  23.612
 700.06  29.985  23.612
 700.56  29.985  23.643
 701.06  29.985  23.581
 701.56  29.985  23.612
 702.06  29.985  23.612
 702.56  30.101  23.612
 703.06  29.985  23.612
 703.56  30.217  23.612
 704.06  29.877  23.612
 704.56  30.101  23.550
 705.06  29.985  23.581
 705.56  29.877  23.612
 706.06  29.985  23.581
 706.56  29.985  23.612
 707.06  29.985  23.581
 707.56  30.451  23.581
 708.06  29.985  23.581
 708.56  29.985  23.612
 709.06  30.101  23.581
 709.56  30.101  23.612
 710.06  30.101  23.612
 710.56  30.101  23.581
 711.06  30.101  23.612
 711.56  30.101  23.581
 712.06  30.217  23.612
 712.56  30.217  23.612
 713.06  30.101  23.612
 713.56  30.217  23.612
 714.06  30.101  23.612
 714.56  30.101  23.612
 715.06  30.101  23.612
 715.56  30.101  23.581
 716.06  30.101  23.612
 716.56  29.985  23.612
 717.06  30.101  23.612
 717.56  30.101  23.612
 718.06  30.217  23.612
 718.56  30.101  23.612
 719.06  29.985  23.612
 719.56  30.101  23.612
 720.06  30.334  23.612
 720.56  30.217  23.674
 721.06  30.217  23.612
 721.56  30.217  23.550
 722.06  30.101  23.612
 722.56  30.101  23.612
 723.06  30.217  23.643
 723.56  30.217  23.612
 724.06  30.217  23.612
 724.56  30.217  23.581
 725.06  30.217  23.612
 725.56  30.217  23.612
 726.06  30.217  23.643
 726.57  30.334  23.581
 727.07  30.217  23.581
 727.57  30.334  23.612
 728.07  30.217  23.643
 728.57  30.334  23.643
 729.07  30.334  23.581
 729.57  30.334  23.612
 730.07  30.334  23.612
 730.57  30.217  23.612
 731.07  30.334  23.674
 731.57  30.568  23.612
 732.07  30.334  23.612
 732.57  30.217  23.643
 733.07  30.217  23.581
 733.57  30.334  23.612
 734.07  30.101  23.612
 734.57  30.101  23.581
 735.07  30.334  23.612
 735.57  30.334  23.612
 736.07  30.217  23.612
 736.57  30.334  23.581
 737.07  30.334  23.612
 737.57  30.334  23.612
 738.07  30.217  23.612
 738.57  30.334  23.612
 739.07  30.334  23.612
 739.57  30.217  23.612
 740.07  30.217  23.612
 740.57  30.217  23.581
 741.07  30.334  23.612
 741.57  30.334  23.581
 742.07  30.217  23.581
 742.57  30.451  23.612
 743.07  30.217  23.612
 743.57  30.334  23.550
 744.07  30.217  23.612
 744.57  30.568  23.612
 745.07  30.217  23.550
 745.57  30.334  23.612
 746.07  30.334  23.643
 746.57  30.334  23.581
 747.07  30.334  23.643
 747.57  30.217  23.612
 748.07  30.334  23.612
 748.57  30.334  23.612
 749.07  30.217  23.643
 749.57  30.568  23.612
 750.07  30.451  23.581
 750.57  30.334  23.612
 751.07  30.217  23.612
 751.57  30.451  23.581
 752.07  30.334  23.581
 752.57  30.334  23.612
 753.07  30.334  23.581
 753.57  30.451  23.612
 754.07  30.334  23.643
 754.57  30.451  23.581
 755.07  30.451  23.612
 755.57  30.334  23.612
 756.07  30.451  23.612
 756.57  30.451  23.612
 757.07  30.334  23.612
 757.57  30.334  23.612
 758.07  30.334  23.581
 758.57  30.334  23.612
 759.07  30.334  23.612
 759.57  30.451  23.612
 760.07  30.451  23.581
 760.57  30.451  23.612
 761.07  30.451  23.581
 761.57  30.334  23.643
 762.07  30.568  23.581
 762.57  30.451  23.643
 763.07  30.568  23.612
 763.57  30.451  23.612
 764.07  30.451  23.643
 764.57  30.451  23.612
 765.07  30.451  23.643
 765.57  30.568  23.643
 766.07  30.334  23.612
 766.57  30.568  23.612
 767.07  30.451  23.581
 767.57  30.568  23.612
 768.07  30.568  23.612
 768.57  30.451  23.612
 769.07  30.451  23.612
 769.57  30.451  23.612
 770.07  30.451  23.612
 770.57  30.568  23.612
 771.07  30.568  23.612
 771.57  30.451  23.612
 772.07  30.334  23.612
 772.57  30.568  23.612
 773.07  30.568  23.612
 773.57  30.568  23.581
 774.07  30.568  23.643
 774.57  30.568  23.581
 775.07  30.451  23.612
 775.57  30.451  23.581
 776.07  30.568  23.612
 776.57  30.685  23.581
 777.07  30.451  23.643
 777.57  30.451  23.612
 778.07  30.685  23.612
 778.57  30.451  23.612
 779.07  30.568  23.643
 779.57  30.685  23.612
 780.07  30.568  23.581
 780.57  30.685  23.612
 781.07  30.334  23.581
 781.57  30.802  23.612
 782.07  30.568  23.612
 782.57  30.451  23.612
 783.07  30.685  23.612
 783.57  30.451  23.643
 784.07  30.568  23.612
 784.57  30.568  23.581
 785.07  30.568  23.612
 785.57  30.451  23.643
 786.07  30.568  23.674
 786.57  30.685  23.612
 787.07  30.568  23.581
 787.57  30.568  23.612
 788.07  30.568  23.612
 788.57  30.685  23.612
 789.07  30.685  23.612
 789.57  30.568  23.612
 790.07  30.568  23.674
 790.57  30.451  23.643
 791.07  30.451  23.612
 791.57  30.685  23.612
 792.07  30.685  23.612
 792.57  30.568  23.643
 793.07  30.568  23.581
 793.57  30.685  23.643
 794.07  30.685  23.581
 794.57  30.685  23.612
 795.07  30.568  23.643
 795.57  30.685  23.674
 796.07  30.685  23.643
 796.57  30.568  23.612
 797.07  30.685  23.612
 797.57  30.568  23.612
 798.07  30.802  23.643
 798.57  30.568  23.612
 799.07  30.685  23.612
 799.57  30.685  23.612
 800.07  30.802  23.581
 800.57  30.568  23.612
 801.07  30.568  23.612
 801.57  30.802  23.612
 802.07  30.568  23.612
 802.57  30.685  23.612
 803.07  30.919  23.643
 803.57  30.919  23.581
 804.07  30.919  23.643
 804.57  30.919  23.612
 805.07  30.685  23.643
 805.57  30.685  23.643
 806.07  30.802  23.612
 806.57  30.802  23.643
 807.07  30.802  23.612
 807.57  30.685  23.612
 808.07  30.685  23.643
 808.57  30.802  23.612
 809.07  30.685  23.612
 809.57  30.802  23.612
 810.07  30.802  23.612
 810.57  30.802  23.612
 811.07  30.802  23.612
 811.57  30.919  23.612
 812.07  30.685  23.612
 812.57  30.685  23.643
 813.07  30.802  23.612
 813.57  30.802  23.520
 814.07  30.802  23.612
 814.57  30.802  23.612
 815.07  30.802  23.612
 815.57  30.802  23.612
 816.07  30.919  23.612
 816.57  30.802  23.643
 817.07  30.802  23.612
 817.57  30.802  23.612
 818.07  30.919  23.612
 818.57  30.802  23.612
 819.07  30.919  23.612
 819.57  30.802  23.612
 820.07  30.685  23.612
 820.57  30.802  23.612
 821.07  30.568  23.643
 821.57  30.802  23.581
 822.07  30.685  23.643
 822.57  30.802  23.581
 823.07  30.919  23.643
 823.57  30.685  23.612
 824.07  30.919  23.612
 824.57  30.919  23.674
 825.07  30.802  23.643
 825.57  30.802  23.643
 826.07  30.802  23.643
 826.57  30.802  23.612
 827.07  30.802  23.612
 827.57  30.802  23.612
 828.07  30.802  23.612
 828.57  30.685  23.612
 829.07  30.919  23.643
 829.57  30.802  23.612
 830.07  30.685  23.612
 830.57  30.802  23.643
 831.07  30.919  23.612
 831.57  30.919  23.581
 832.07  30.802  23.612
 832.57  30.802  23.643
 833.07  30.919  23.643
 833.57  30.802  23.612
 834.07  30.919  23.643
 834.57  30.919  23.612
 835.07  30.802  23.643
 835.57  30.919  23.612
 836.07  30.802  23.612
 836.57  30.802  23.612
 837.07  30.919  23.612
 837.57  30.919  23.643
 838.07  30.919  23.612
 838.57  31.036  23.612
 839.07  30.802  23.612
 839.58  30.919  23.612
 840.08  30.919  23.612
 840.58  30.919  23.643
 841.08  30.919  23.612
 841.58  31.036  23.581
 842.08  30.919  23.643
 842.58  30.919  23.643
 843.08  31.036  23.612
 843.58  30.919  23.612
 844.08  30.919  23.612
 844.58  30.919  23.643
 845.08  31.036  23.612
 845.58  30.919  23.643
 846.08  30.919  23.612
 846.58  31.036  23.643
 847.08  30.919  23.612
 847.58  30.919  23.643
 848.08  31.036  23.643
 848.58  30.919  23.643
 849.08  31.036  23.612
 849.58  31.036  23.612
 850.08  30.919  23.674
 850.58  30.919  23.581
 851.08  30.919  23.643
 851.58  30.919  23.612
 852.08  31.036  23.612
 852.58  31.036  23.612
 853.08  31.036  23.612
 853.58  31.152  23.612
 854.08  31.036  23.643
 854.58  30.919  23.612
 855.08  30.919  23.643
 855.58  31.269  23.612
 856.08  30.919  23.643
 856.58  30.919  23.612
 857.08  31.036  23.674
 857.58  30.919  23.643
 858.08  31.152  23.643
 858.58  31.036  23.705
 859.08  31.036  23.643
 859.58  31.036  23.612
 860.08  31.036  23.581
 860.58  31.036  23.643
 861.08  31.036  23.612
 861.58  31.036  23.612
 862.08  31.036  23.643
 862.58  31.036  23.612
 863.08  31.152  23.581
 863.58  31.152  23.612
 864.08  30.919  23.643
 864.58  31.036  23.643
 865.08  31.036  23.643
 865.58  30.919  23.643
 866.08  31.036  23.643
 866.58  31.036  23.612
 867.08  31.152  23.643
 867.58  31.036  23.612
 868.08  31.152  23.643
 868.58  31.036  23.643
 869.08  31.036  23.612
 869.58  31.036  23.643
 870.08  31.152  23.643
 870.58  31.036  23.612
 871.08  31.036  23.612
 871.58  31.036  23.612
 872.08  31.036  23.581
 872.58  31.152  23.643
 873.08  31.152  23.643
 873.58  30.919  23.643
 874.08  31.036  23.612
 874.58  30.919  23.612
 875.08  31.152  23.612
 875.58  31.036  23.612
 876.08  31.152  23.643
 876.58  31.036  23.643
 877.08  31.152  23.643
 877.58  31.152  23.643
 878.08  31.036  23.643
 878.58  31.269  23.674
 879.08  31.036  23.643
 879.58  31.036  23.612
 880.08  31.036  23.643
 880.58  31.152  23.612
 881.08  31.269  23.612
 881.58  31.152  23.643
 882.08  30.919  23.643
 882.58  31.036  23.581
 883.08  31.036  23.612
 883.58  31.152  23.674
 884.08  31.152  23.612
 884.58  31.152  23.612
 885.08  31.269  23.643
 885.58  31.269  23.643
 886.08  31.269  23.612
 886.58  31.269  23.612
 887.08  31.152  23.581
 887.58  31.152  23.643
 888.08  31.386  23.612
 888.58  31.269  23.674
 889.08  31.269  23.643
 889.58  31.269  23.643
 890.08  31.269  23.643
 890.58  31.269  23.612
 891.08  31.152  23.643
 891.58  31.269  23.674
 892.08  31.269  23.612
 892.58  31.152  23.612
 893.08  31.269  23.643
 893.58  31.269  23.612
 894.08  31.152  23.643
 894.58  31.152  23.643
 895.08  31.269  23.612
 895.58  31.386  23.612
 896.08  31.269  23.581
 896.58  31.152  23.612
 897.08  31.152  23.612
 897.58  31.269  23.643
 898.08  31.152  23.674
 898.58  31.152  23.674
 899.08  31.269  23.643
 899.58  31.269  23.612
 900.08  31.269  23.643
 900.58  31.152  23.612
 901.08  31.269  23.612
 901.58  31.269  23.643
 902.08  31.152  23.612
 902.58  31.269  23.612
 903.08  31.386  23.612
 903.58  31.386  23.643
 904.08  31.269  23.643
 904.58  31.386  23.674
 905.08  31.386  23.612
 905.58  31.269  23.643
 906.08  31.269  23.643
 906.58  31.269  23.674
 907.08  31.269  23.674
 907.58  31.269  23.612
 908.08  31.269  23.612
 908.58  31.269  23.674
 909.08  31.269  23.643
 909.58  31.152  23.612
 910.08  31.386  23.643
 910.58  31.269  23.643
 911.08  31.269  23.643
 911.58  31.036  23.674
 912.08  31.269  23.581
 912.58  31.269  23.674
 913.08  31.503  23.643
 913.58  31.269  23.612
 914.08  31.152  23.643
 914.58  31.386  23.643
 915.08  31.269  23.612
 915.58  31.269  23.643
 916.08  31.152  23.643
 916.58  31.503  23.643
 917.08  31.269  23.643
 917.58  31.386  23.643
 918.08  31.269  23.612
 918.58  31.269  23.520
 919.08  31.386  23.612
 919.58  31.269  23.643
 920.08  31.386  23.674
 920.58  31.386  23.643
 921.08  31.152  23.643
 921.58  31.503  23.643
 922.08  31.386  23.705
 922.58  31.386  23.643
 923.08  31.503  23.643
 923.58  31.386  23.612
 924.08  31.269  23.674
 924.58  31.386  23.674
 925.08  31.386  23.643
 925.58  31.386  23.674
 926.08  31.152  23.643
 926.58  31.386  23.643
 927.08  31.503  23.643
 927.58  31.386  23.643
 928.08  31.386  23.612
 928.58  31.503  23.612
 929.08  31.386  23.643
 929.58  31.503  23.705
 930.08  31.503  23.643
 930.58  31.386  23.612
 931.08  31.386  23.612
 931.58  31.386  23.643
 932.08  31.620  23.612
 932.58  31.503  23.612
 933.08  31.386  23.612
 933.58  31.620  23.612
 934.08  31.386  23.643
 934.58  31.386  23.643
 935.08  31.503  23.643
 935.58  31.503  23.612
 936.08  31.386  23.674
 936.58  31.269  23.674
 937.08  31.386  23.674
 937.58  31.503  23.643
 938.08  31.269  23.643
 938.58  31.386  23.643
 939.08  31.386  23.643
 939.58  31.503  23.674
 940.08  31.503  23.643
 940.58  31.386  23.643
 941.08  31.503  23.643
 941.58  31.503  23.674
 942.08  31.503  23.643
 942.58  31.503  23.674
 943.08  31.503  23.612
 943.58  31.503  23.705
 944.08  31.269  23.612
 944.58  31.503  23.643
 945.08  31.503  23.643
 945.58  31.854  23.643
 946.08  31.503  23.674
 946.58  31.503  23.643
 947.08  31.503  23.643
 947.58  31.386  23.643
 948.08  31.386  23.674
 948.58  31.386  23.643
 949.08  31.620  23.643
 949.58  31.503  23.705
 950.08  31.503  23.643
 950.58  31.620  23.674
 951.08  31.503  23.612
 951.58  31.386  23.643
 952.08  31.503  23.674
 952.58  31.386  23.643
 953.09  31.386  23.612
 953.59  31.386  23.643
 954.09  31.386  23.643
 954.59  31.386  23.643
 955.09  31.503  23.612
 955.59  31.386  23.643
 956.09  31.503  23.643
 956.59  31.386  23.612
 957.09  31.386  23.643
 957.59  31.386  23.612
 958.09  31.503  23.674
 958.59  31.503  23.643
 959.09  31.503  23.643
 959.59  31.503  23.643
 960.09  31.503  23.674
 960.59  31.503  23.643
 961.09  31.620  23.643
 961.59  31.386  23.612
 962.09  31.503  23.643
 962.59  31.503  23.674
 963.09  31.503  23.674
 963.59  31.620  23.643
 964.09  31.620  23.643
 964.59  31.620  23.643
 965.09  31.503  23.674
 965.59  31.503  23.643
 966.09  31.620  23.643
 966.59  31.503  23.674
 967.09  31.503  23.674
 967.59  31.620  23.612
 968.09  31.503  23.612
 968.59  31.503  23.643
 969.09  31.620  23.643
 969.59  31.503  23.674
 970.09  31.620  23.643
 970.59  31.503  23.643
 971.09  31.620  23.674
 971.59  31.620  23.674
 972.09  31.386  23.643
 972.59  31.620  23.643
 973.09  31.503  23.612
 973.59  31.620  23.643
 974.09  31.737  23.674
 974.59  31.503  23.705
 975.09  31.620  23.643
 975.59  31.620  23.674
 976.09  31.503  23.674
 976.59  31.503  23.643
 977.09  31.503  23.643
 977.59  31.620  23.643
 978.09  31.620  23.612
 978.59  31.620  23.643
 979.09  31.620  23.674
 979.59  31.620  23.643
 980.09  31.737  23.643
 980.59  31.503  23.643
 981.09  31.971  23.643
 981.59  31.620  23.643
 982.09  31.620  23.643
 982.59  31.620  23.643
 983.09  31.854  23.674
 983.59  31.620  23.643
 984.09  31.503  23.643
 984.59  31.737  23.581
 985.09  31.503  23.643
 985.59  31.737  23.674
 986.09  31.737  23.643
 986.59  31.620  23.674
 987.09  31.620  23.612
 987.59  31.737  23.643
 988.09  31.737  23.674
 988.59  32.204  23.674
 989.09  31.737  23.643
 989.59  31.854  23.674
 990.09  31.737  23.674
 990.59  31.737  23.643
 991.09  31.854  23.643
 991.59  31.737  23.643
 992.09  31.737  23.643
 992.59  31.854  23.674
 993.09  31.737  23.674
 993.59  31.854  23.612
 994.09  31.620  23.643
 994.59  31.737  23.674
 995.09  31.854  23.674
 995.59  31.737  23.674
 996.09  31.854  23.674
 996.59  31.503  23.674
 997.09  31.737  23.674
 997.59  31.737  23.643
 998.09  31.854  23.674
 998.59  31.737  23.643
 999.09  31.737  23.643
 999.59  31.620  23.643
1000.09  31.854  23.643
1000.59  31.854  23.674
1001.09  31.737  23.674
1001.59  31.854  23.612
1002.09  31.854  23.612
1002.59  31.737  23.643
1003.09  31.737  23.643
1003.59  31.620  23.643
1004.09  31.737  23.643
1004.59  31.737  23.643
1005.09  31.620  23.643
1005.59  31.620  23.643
1006.09  31.854  23.674
1006.59  31.737  23.643
1007.09  31.737  23.674
1007.59  32.087  23.674
1008.09  31.737  23.674
1008.59  31.971  23.674
1009.09  31.737  23.643
1009.59  31.971  23.643
1010.09  31.737  23.643
1010.59  31.854  23.674
1011.09  31.854  23.674
1011.59  31.620  23.674
1012.09  31.854  23.674
1012.59  31.854  23.705
1013.09  31.971  23.674
1013.59  31.854  23.612
1014.09  31.854  23.674
1014.59  31.737  23.643
1015.09  31.854  23.612
1015.59  31.737  23.674
1016.09  31.854  23.705
1016.59  31.854  23.643
1017.09  31.971  23.643
1017.59  31.737  23.674
1018.09  31.854  23.674
1018.59  31.854  23.674
1019.09  31.971  23.612
1019.59  32.087  23.643
1020.09  31.854  23.674
1020.59  31.971  23.643
1021.09  31.737  23.674
1021.59  31.971  23.643
1022.09  31.971  23.674
1022.59  31.854  23.674
1023.09  31.854  23.643
1023.59  31.971  23.705
1024.09  31.854  23.705
1024.59  31.854  23.674
1025.09  31.854  23.643
1025.59  31.854  23.674
1026.09  31.854  23.643
1026.59  31.971  23.643
1027.09  31.854  23.643
1027.59  31.854  23.705
1028.09  31.737  23.674
1028.59  31.971  23.705
1029.09  31.854  23.643
1029.59  31.737  23.674
1030.09  31.737  23.643
1030.59  31.971  23.643
1031.09  31.854  23.643
1031.59  31.620  23.674
1032.09  31.854  23.674
1032.59  31.971  23.612
1033.09  31.854  23.612
1033.59  31.971  23.643
1034.09  31.854  23.674
1034.59  31.971  23.643
1035.09  31.854  23.643
1035.59  31.971  23.612
1036.09  31.971  23.674
1036.59  31.971  23.643
1037.09  31.854  23.643
1037.59  31.971  23.643
1038.09  31.971  23.674
1038.59  31.854  23.643
1039.09  31.971  23.643
1039.59  31.971  23.674
1040.09  31.971  23.674
1040.59  31.971  23.674
1041.09  31.854  23.674
1041.59  31.971  23.674
1042.09  31.971  23.612
1042.59  31.971  23.643
1043.09  31.854  23.674
1043.59  31.971  23.674
1044.09  32.087  23.643
1044.59  31.971  23.643
1045.09  31.971  23.643
1045.59  31.854  23.674
1046.09  32.087  23.674
1046.59  31.971  23.643
1047.09  31.971  23.674
1047.59  32.087  23.674
1048.09  31.971  23.705
1048.59  31.854  23.674
1049.09  32.087  23.674
1049.59  32.087  23.674
1050.09  31.854  23.674
1050.59  32.204  23.674
1051.09  31.854  23.643
1051.59  32.087  23.674
1052.09  31.854  23.643
1052.59  31.971  23.674
1053.09  31.854  23.674
1053.59  31.971  23.674
1054.09  31.971  23.674
1054.59  31.854  23.674
1055.09  31.854  23.643
1055.59  31.854  23.674
1056.09  32.087  23.674
1056.59  32.087  23.674
1057.09  31.971  23.674
1057.59  31.971  23.674
1058.09  31.854  23.674
1058.59  32.087  23.674
1059.09  31.971  23.674
1059.59  32.087  23.643
1060.09  32.087  23.674
1060.59  31.971  23.674
1061.09  32.087  23.643
1061.59  31.971  23.674
1062.09  32.087  23.674
1062.59  32.087  23.674
1063.09  32.087  23.705
1063.59  31.971  23.643
1064.09  32.087  23.612
1064.59  32.087  23.674
1065.09  31.854  23.674
1065.59  32.087  23.643
1066.10  32.087  23.674
1066.60  32.087  23.674
1067.10  32.087  23.674
1067.60  32.087  23.674
1068.10  31.971  23.674
1068.60  31.971  23.643
1069.10  32.087  23.674
1069.60  31.971  23.674
1070.10  32.087  23.674
1070.60  32.087  23.674
1071.10  32.087  23.674
1071.60  32.087  23.674
1072.10  32.204  23.612
1072.60  32.087  23.674
1073.10  32.087  23.674
1073.60  32.087  23.643
1074.10  32.321  23.674
1074.60  31.971  23.674
1075.10  31.971  23.705
1075.60  32.087  23.643
1076.10  31.971  23.705
1076.60  32.087  23.674
1077.10  32.087  23.705
1077.60  31.971  23.674
1078.10  31.971  23.643
1078.60  31.971  23.643
1079.10  31.971  23.705
1079.60  32.087  23.674
1080.10  32.087  23.674
1080.60  32.087  23.674
1081.10  32.087  23.643
1081.60  31.971  23.674
1082.10  32.087  23.674
1082.60  32.087  23.674
1083.10  32.087  23.674
1083.60  32.087  23.643
1084.10  32.087  23.643
1084.60  32.087  23.705
1085.10  32.204  23.705
1085.60  32.087  23.705
1086.10  32.087  23.674
1086.60  32.087  23.674
1087.10  32.204  23.705
1087.60  32.087  23.643
1088.10  32.087  23.643
1088.60  31.971  23.643
1089.10  32.087  23.674
1089.60  32.204  23.643
1090.10  32.321  23.674
1090.60  32.087  23.735
1091.10  32.204  23.674
1091.60  32.087  23.674
1092.10  32.204  23.612
1092.60  32.087  23.674
1093.10  32.204  23.643
1093.60  32.204  23.643
1094.10  32.087  23.643
1094.60  32.087  23.674
1095.10  32.087  23.643
1095.60  32.204  23.674
1096.10  32.087  23.674
1096.60  32.087  23.674
1097.10  32.087  23.705
1097.60  32.204  23.674
1098.10  31.971  23.643
1098.60  32.087  23.643
1099.10  32.087  23.674
1099.60  32.204  23.674
1100.10  32.204  23.643
1100.60  32.204  23.674
1101.10  31.971  23.674
1101.60  32.087  23.674
1102.10  32.087  23.643
1102.60  32.087  23.643
1103.10  31.971  23.674
1103.60  32.438  23.674
1104.10  32.204  23.674
1104.60  32.204  23.674
1105.10  32.204  23.705
1105.60  32.204  23.705
1106.10  32.204  23.674
1106.60  32.204  23.674
1107.10  32.204  23.674
1107.60  32.204  23.643
1108.10  32.087  23.643
1108.60  32.204  23.674
1109.10  32.321  23.643
1109.60  32.204  23.674
1110.10  32.087  23.674
1110.60  32.204  23.674
1111.10  31.971  23.643
1111.60  32.204  23.674
1112.10  32.087  23.705
1112.60  32.087  23.674
1113.10  32.204  23.643
1113.60  32.204  23.705
1114.10  32.204  23.766
1114.60  32.204  23.705
1115.10  32.204  23.705
1115.60  32.204  23.674
1116.10  32.204  23.643
1116.60  32.204  23.705
1117.10  32.321  23.705
1117.60  32.321  23.674
1118.10  32.204  23.643
1118.60  32.204  23.674
1119.10  32.204  23.705
1119.60  32.204  23.674
1120.10  32.204  23.705
1120.60  32.087  23.643
1121.10  32.204  23.674
1121.60  32.321  23.705
1122.10  32.321  23.674
1122.60  32.321  23.674
1123.10  32.204  23.674
1123.60  32.204  23.674
1124.10  32.204  23.674
1124.60  32.204  23.674
1125.10  32.438  23.674
1125.60  32.204  23.674
1126.10  32.204  23.612
1126.60  32.204  23.674
1127.10  32.321  23.674
1127.60  32.204  23.705
1128.10  32.321  23.674
1128.60  32.087  23.643
1129.10  32.438  23.674
1129.60  32.438  23.705
1130.10  32.321  23.674
1130.60  32.321  23.735
1131.10  32.438  23.735
1131.60  32.321  23.674
1132.10  32.321  23.705
1132.60  32.321  23.705
1133.10  32.321  23.705
1133.60  32.204  23.735
1134.10  32.321  23.674
1134.60  32.321  23.705
1135.10  32.321  23.766
1135.60  32.321  23.674
1136.10  32.438  23.674
1136.60  32.321  23.674
1137.10  32.321  23.674
1137.60  32.438  23.674
1138.10  32.438  23.674
1138.60  32.087  23.612
1139.10  32.321  23.674
1139.60  32.321  23.705
1140.10  32.321  23.643
1140.60  32.321  23.674
1141.10  32.321  23.674
1141.60  32.321  23.705
1142.10  32.204  23.674
1142.60  32.438  23.643
1143.10  32.438  23.705
1143.60  32.555  23.674
1144.10  32.321  23.674
1144.60  32.321  23.674
1145.10  32.321  23.643
1145.60  32.204  23.705
1146.10  32.555  23.674
1146.60  32.438  23.643
1147.10  32.321  23.674
1147.60  32.438  23.735
1148.10  32.438  23.705
1148.60  32.204  23.674
1149.10  32.321  23.705
1149.60  32.438  23.705
1150.10  32.438  23.674
1150.60  32.438  23.674
1151.10  32.555  23.674
1151.60  32.321  23.674
1152.10  32.321  23.674
1152.60  32.438  23.674
1153.10  32.438  23.674
1153.60  32.438  23.674
1154.10  32.321  23.674
1154.60  32.321  23.705
1155.10  32.321  23.674
1155.60  32.204  23.674
1156.10  32.204  23.674
1156.60  32.438  23.705
1157.10  32.087  23.643
1157.60  32.438  23.705
1158.10  32.321  23.674
1158.60  32.789  23.674
1159.10  32.438  23.705
1159.60  32.438  23.674
1160.10  32.555  23.705
1160.60  32.438  23.705
1161.10  32.438  23.674
1161.60  32.321  23.705
1162.10  32.438  23.674
1162.60  32.438  23.705
1163.10  32.204  23.674
1163.60  32.438  23.674
1164.10  32.321  23.705
1164.60  32.438  23.643
1165.10  32.438  23.705
1165.60  32.321  23.674
1166.10  32.438  23.674
1166.60  32.672  23.735
1167.10  32.438  23.674
1167.60  32.321  23.705
1168.10  32.438  23.674
1168.60  32.438  23.674
1169.10  32.438  23.674
1169.60  32.438  23.705
1170.10  32.438  23.674
1170.60  32.555  23.674
1171.10  32.321  23.674
1171.60  32.672  23.705
1172.10  32.204  23.643
1172.60  32.672  23.705
1173.10  32.438  23.674
1173.60  32.555  23.705
1174.10  32.321  23.705
1174.60  32.438  23.674
1175.10  32.438  23.674
1175.60  32.555  23.674
1176.10  32.555  23.705
1176.60  32.438  23.674
1177.10  32.555  23.674
1177.60  32.555  23.674
1178.10  32.438  23.674
1178.60  32.555  23.674
1179.11  32.438  23.705
1179.61  32.672  23.674
1180.11  32.438  23.705
1180.61  32.555  23.705
1181.11  32.555  23.674
1181.61  32.438  23.705
1182.11  32.555  23.674
1182.61  32.555  23.674
1183.11  32.555  23.705
1183.61  32.672  23.705
1184.11  32.438  23.705
1184.61  32.438  23.735
1185.11  32.438  23.674
1185.61  32.555  23.735
1186.11  32.555  23.674
1186.61  32.555  23.705
1187.11  32.204  23.612
1187.61  32.672  23.674
1188.11  32.555  23.735
1188.61  32.672  23.705
1189.11  32.555  23.643
1189.61  32.555  23.674
1190.11  32.555  23.674
1190.61  32.438  23.735
1191.11  32.321  23.674
1191.61  32.555  23.674
1192.11  32.555  23.705
1192.61  32.672  23.674
1193.11  32.555  23.674
1193.61  32.555  23.705
1194.11  32.438  23.674
1194.61  32.555  23.674
1195.11  32.438  23.705
1195.61  32.555  23.705
1196.11  32.555  23.735
1196.61  32.555  23.705
1197.11  32.555  23.705
1197.61  32.555  23.705
1198.11  32.555  23.612
1198.61  32.555  23.705
1199.11  32.555  23.705
1199.61  32.672  23.705
1200.11  32.438  23.705
1200.61  32.672  23.705
1201.11  32.672  23.674
1201.61  32.204  23.705
1202.11  32.555  23.705
1202.61  32.555  23.705
1203.11  32.672  23.674
1203.61  32.555  23.674
1204.11  32.438  23.705
1204.61  32.555  23.674
1205.11  32.438  23.674
1205.61  32.672  23.674
1206.11  32.438  23.643
1206.61  32.555  23.705
1207.11  32.555  23.643
1207.61  32.555  23.674
1208.11  32.555  23.705
1208.61  32.555  23.674
1209.11  32.555  23.674
1209.61  32.555  23.674
1210.11  32.555  23.705
1210.61  32.789  23.705
1211.11  32.555  23.705
1211.61  32.555  23.705
1212.11  32.672  23.674
1212.61  32.555  23.674
1213.11  32.555  23.705
1213.61  32.555  23.674
1214.11  32.555  23.674
1214.61  32.555  23.705
1215.11  32.555  23.705
1215.61  32.438  23.674
1216.11  32.204  23.674
1216.61  32.555  23.705
1217.11  32.438  23.705
1217.61  32.555  23.735
1218.11  32.672  23.705
1218.61  32.321  23.735
1219.11  32.672  23.705
1219.61  32.672  23.705
1220.11  32.555  23.705
1220.61  32.789  23.674
1221.11  32.672  23.674
1221.61  32.555  23.735
1222.11  32.672  23.705
1222.61  32.555  23.674
1223.11  32.672  23.705
1223.61  32.555  23.705
1224.11  32.672  23.674
1224.61  32.438  23.674
1225.11  32.555  23.705
1225.61  32.789  23.705
1226.11  32.789  23.705
1226.61  32.672  23.674
1227.11  32.672  23.705
1227.61  32.438  23.705
1228.11  32.555  23.735
1228.61  32.672  23.705
1229.11  32.672  23.705
1229.61  32.672  23.705
1230.11  32.906  23.705
1230.61  32.672  23.705
1231.11  32.789  23.735
1231.61  32.672  23.705
1232.11  32.555  23.705
1232.61  32.789  23.674
1233.11  32.555  23.705
1233.61  32.555  23.705
1234.11  32.555  23.705
1234.61  32.672  23.705
1235.11  32.555  23.674
1235.61  32.672  23.705
1236.11  32.789  23.705
1236.61  32.789  23.705
1237.11  32.438  23.643
1237.61  32.555  23.705
1238.11  32.555  23.674
1238.61  32.672  23.674
1239.11  32.672  23.705
1239.61  32.555  23.705
1240.11  32.672  23.705
1240.61  32.789  23.674
1241.11  32.555  23.705
1241.61  32.672  23.674
1242.11  32.672  23.705
1242.61  32.672  23.705
1243.11  32.789  23.705
1243.61  32.555  23.705
1244.11  32.672  23.705
1244.61  32.906  23.705
1245.11  32.672  23.797
1245.61  32.672  23.674
1246.11  32.672  23.735
1246.61  32.789  23.705
1247.11  32.789  23.705
1247.61  32.789  23.705
1248.11  32.789  23.735
1248.61  32.789  23.705
1249.11  32.789  23.735
1249.61  33.139  23.705
1250.11  32.789  23.705
1250.61  32.789  23.705
1251.11  32.789  23.674
1251.61  32.672  23.674
1252.11  32.672  23.674
1252.61  32.789  23.735
1253.11  32.672  23.705
1253.61  32.672  23.705
1254.11  32.789  23.705
1254.61  32.789  23.674
1255.11  32.789  23.705
1255.61  32.672  23.705
1256.11  32.789  23.735
1256.61  32.555  23.705
1257.11  32.789  23.735
1257.61  32.906  23.735
1258.11  32.672  23.674
1258.61  32.672  23.705
1259.11  32.789  23.705
1259.61  32.789  23.705
1260.11  32.672  23.705
1260.61  32.906  23.674
1261.11  32.672  23.705
1261.61  32.789  23.735
1262.11  32.789  23.705
1262.61  32.906  23.705
1263.11  32.789  23.705
1263.61  32.906  23.705
1264.11  32.789  23.735
1264.61  32.789  23.705
1265.11  32.672  23.705
1265.61  32.789  23.705
1266.11  32.789  23.705
1266.61  32.789  23.735
1267.11  32.789  23.674
1267.61  32.672  23.705
1268.11  32.906  23.705
1268.61  32.672  23.705
1269.11  32.789  23.705
1269.61  32.789  23.705
1270.11  32.789  23.705
1270.61  32.789  23.674
1271.11  32.789  23.705
1271.61  32.789  23.705
1272.11  32.789  23.705
1272.61  32.789  23.705
1273.11  32.789  23.705
1273.61  32.789  23.674
1274.11  32.672  23.705
1274.61  32.672  23.735
1275.11  32.906  23.735
1275.61  32.789  23.705
1276.11  32.672  23.735
1276.61  32.906  23.705
1277.11  32.789  23.674
1277.61  32.789  23.705
1278.11  32.789  23.705
1278.61  32.789  23.705
1279.11  32.906  23.705
1279.61  32.906  23.735
1280.11  32.906  23.674
1280.61  32.789  23.705
1281.11  32.906  23.705
1281.61  32.906  23.705
1282.11  32.906  23.674
1282.61  33.022  23.674
1283.11  32.906  23.705
1283.61  32.789  23.705
1284.11  32.906  23.705
1284.61  32.906  23.674
1285.11  32.789  23.735
1285.61  33.022  23.674
1286.11  32.906  23.735
1286.61  32.789  23.705
1287.11  33.022  23.735
1287.61  32.906  23.766
1288.11  32.789  23.735
1288.61  32.906  23.705
1289.11  33.022  23.705
1289.61  32.906  23.766
1290.11  32.906  23.705
1290.61  33.022  23.705
1291.11  32.906  23.674
1291.61  32.789  23.705
1292.12  33.022  23.674
1292.62  32.906  23.705
1293.12  32.906  23.705
1293.62  32.906  23.705
1294.12  32.906  23.705
1294.62  32.906  23.735
1295.12  32.906  23.735
1295.62  32.906  23.735
1296.12  32.789  23.705
1296.62  32.906  23.705
1297.12  32.789  23.705
1297.62  32.906  23.705
1298.12  32.906  23.705
1298.62  32.789  23.705
1299.12  32.906  23.705
1299.62  32.789  23.705
1300.12  33.022  23.705
1300.62  32.906  23.705
1301.12  32.906  23.735
1301.62  32.789  23.735
1302.12  32.906  23.705
1302.62  32.789  23.705
1303.12  32.906  23.674
1303.62  32.906  23.735
1304.12  32.906  23.705
1304.62  32.789  23.705
1305.12  32.672  23.705
1305.62  32.906  23.705
1306.12  32.906  23.705
1306.62  33.022  23.705
1307.12  33.022  23.705
1307.62  32.789  23.766
1308.12  32.906  23.705
1308.62  33.022  23.705
1309.12  32.906  23.705
1309.62  32.906  23.705
1310.12  32.906  23.705
1310.62  32.906  23.735
1311.12  33.022  23.735
1311.62  32.906  23.735
1312.12  32.906  23.705
1312.62  33.022  23.674
1313.12  33.022  23.705
1313.62  32.906  23.705
1314.12  32.906  23.674
1314.62  32.906  23.735
1315.12  32.906  23.735
1315.62  32.906  23.705
1316.12  33.022  23.705
1316.62  33.022  23.705
1317.12  33.022  23.705
1317.62  32.906  23.735
1318.12  33.022  23.705
1318.62  33.022  23.705
1319.12  33.022  23.674
1319.62  33.022  23.735
1320.12  32.906  23.705
1320.62  32.906  23.705
1321.12  32.906  23.735
1321.62  32.906  23.705
1322.12  33.022  23.705
1322.62  33.139  23.766
1323.12  32.906  23.705
1323.62  33.022  23.705
1324.12  32.906  23.705
1324.62  33.022  23.766
1325.12  32.906  23.735
1325.62  32.789  23.705
1326.12  33.022  23.705
1326.62  33.022  23.705
1327.12  33.139  23.705
1327.62  32.906  23.674
1328.12  33.022  23.705
1328.62  33.022  23.735
1329.12  33.022  23.735
1329.62  32.906  23.705
1330.12  32.906  23.705
1330.62  32.906  23.705
1331.12  32.906  23.674
1331.62  33.022  23.705
1332.12  33.022  23.705
1332.62  33.607  23.735
1333.12  33.022  23.705
1333.62  33.022  23.735
1334.12  32.906  23.705
1334.62  33.022  23.705
1335.12  32.906  23.705
1335.62  33.022  23.735
1336.12  33.139  23.705
1336.62  33.022  23.735
1337.12  33.022  23.705
1337.62  32.906  23.705
1338.12  33.022  23.735
1338.62  32.906  23.705
1339.12  33.022  23.735
1339.62  33.022  23.735
1340.12  33.139  23.705
1340.62  33.022  23.735
1341.12  33.139  23.735
1341.62  33.022  23.766
1342.12  33.022  23.705
1342.62  33.022  23.705
1343.12  33.139  23.735
1343.62  32.906  23.735
1344.12  32.906  23.674
1344.62  33.139  23.705
1345.12  32.906  23.705
1345.62  33.022  23.735
1346.12  33.022  23.705
1346.62  32.906  23.705
1347.12  33.256  23.674
1347.62  33.022  23.735
1348.12  33.022  23.705
1348.62  33.139  23.705
1349.12  33.022  23.735
1349.62  32.789  23.705
1350.12  33.022  23.705
1350.62  33.022  23.705
1351.12  33.022  23.735
1351.62  33.139  23.735
1352.12  33.022  23.735
1352.62  33.022  23.705
1353.12  33.022  23.705
1353.62  33.022  23.705
1354.12  33.139  23.735
1354.62  33.022  23.735
1355.12  33.256  23.766
1355.62  33.022  23.735
1356.12  33.139  23.705
1356.62  33.139  23.735
1357.12  33.139  23.705
1357.62  33.022  23.735
1358.12  33.022  23.735
1358.62  33.139  23.705
1359.12  33.139  23.735
1359.62  33.022  23.735
1360.12  33.022  23.735
1360.62  33.022  23.705
1361.12  33.022  23.705
1361.62  33.022  23.735
1362.12  33.022  23.705
1362.62  33.139  23.797
1363.12  33.139  23.735
1363.62  33.022  23.705
1364.12  33.139  23.735
1364.62  33.022  23.735
1365.12  33.022  23.735
1365.62  33.139  23.705
1366.12  33.139  23.735
1366.62  33.139  23.705
1367.12  33.256  23.735
1367.62  33.139  23.735
1368.12  33.022  23.766
1368.62  33.139  23.735
1369.12  33.139  23.766
1369.62  33.139  23.735
1370.12  32.906  23.735
1370.62  33.022  23.735
1371.12  33.022  23.735
1371.62  33.139  23.735
1372.12  33.256  23.766
1372.62  33.139  23.735
1373.12  33.022  23.705
1373.62  33.139  23.705
1374.12  33.256  23.735
1374.62  33.139  23.705
1375.12  33.139  23.705
1375.62  33.022  23.735
1376.12  33.373  23.797
1376.62  33.139  23.735
1377.12  33.022  23.705
1377.62  33.139  23.735
1378.12  33.256  23.735
1378.62  33.022  23.735
1379.12  33.139  23.735
1379.62  33.607  23.735
1380.12  33.256  23.735
1380.62  33.256  23.705
1381.12  33.022  23.735
1381.62  33.139  23.705
1382.12  33.139  23.735
1382.62  33.139  23.766
1383.12  33.139  23.735
1383.62  33.139  23.735
1384.12  33.256  23.735
1384.62  33.139  23.735
1385.12  32.906  23.735
1385.62  33.139  23.705
1386.12  32.906  23.735
1386.62  33.256  23.735
1387.12  33.256  23.735
1387.62  33.139  23.766
1388.12  33.256  23.705
1388.62  33.139  23.705
1389.12  33.256  23.735
1389.62  33.139  23.705
1390.12  33.139  23.735
1390.62  33.139  23.705
1391.12  33.256  23.735
1391.62  33.022  23.705
1392.12  33.139  23.735
1392.62  33.139  23.766
1393.12  33.256  23.735
1393.62  33.139  23.705
1394.12  33.256  23.766
1394.62  33.139  23.705
1395.12  33.139  23.705
1395.62  33.139  23.735
1396.12  33.022  23.705
1396.62  33.139  23.735
1397.12  33.256  23.735
1397.62  33.139  23.735
1398.12  33.139  23.735
1398.62  33.139  23.735
1399.12  33.139  23.705
1399.62  33.139  23.735
1400.12  33.139  23.766
1400.62  33.139  23.705
1401.12  33.373  23.705
1401.62  33.139  23.766
1402.12  33.256  23.735
1402.62  33.139  23.766
1403.12  33.139  23.735
1403.62  33.139  23.766
1404.12  33.139  23.735
1404.62  33.022  23.735
1405.12  33.256  23.735
1405.62  33.373  23.705
1406.12  33.256  23.766
1406.62  33.256  23.705
1407.12  33.022  23.735
1407.62  33.139  23.705
1408.12  33.256  23.735
1408.62  33.373  23.766
1409.12  33.256  23.735
1409.62  33.139  23.705
1410.12  33.139  23.735
1410.62  33.373  23.705
1411.12  33.139  23.735
1411.62  33.256  23.674
1412.12  33.373  23.735
1412.62  33.256  23.735
1413.12  33.256  23.705
1413.62  33.256  23.705
1414.12  33.139  23.735
1414.62  33.373  23.735
1415.12  33.256  23.735
1415.62  33.256  23.735
1416.13  33.256  23.705
1416.63  33.256  23.797
1417.13  33.139  23.705
1417.63  33.139  23.735
1418.13  33.139  23.735
1418.63  33.256  23.705
1419.13  33.256  23.705
1419.63  33.373  23.766
1420.13  33.139  23.735
1420.63  33.139  23.735
1421.13  33.490  23.735
1421.63  33.256  23.705
1422.13  33.139  23.735
1422.63  33.256  23.735
1423.13  33.256  23.705
1423.63  33.256  23.735
1424.13  33.256  23.705
1424.63  33.373  23.735
1425.13  33.256  23.735
1425.63  33.256  23.735
1426.13  33.373  23.735
1426.63  33.256  23.735
1427.13  33.256  23.735
1427.63  33.139  23.735
1428.13  33.256  23.735
1428.63  33.490  23.766
1429.13  33.256  23.735
1429.63  33.139  23.766
1430.13  33.373  23.705
1430.63  33.256  23.766
1431.13  33.373  23.735
1431.63  33.256  23.735
1432.13  33.373  23.705
1432.63  33.256  23.766
1433.13  33.256  23.797
1433.63  33.256  23.735
1434.13  33.256  23.735
1434.63  33.373  23.766
1435.13  33.373  23.735
1435.63  33.139  23.735
1436.13  33.256  23.735
1436.63  33.256  23.766
1437.13  33.139  23.766
1437.63  33.373  23.766
1438.13  33.373  23.766
1438.63  33.373  23.766
1439.13  33.256  23.735
1439.63  33.256  23.797
1440.13  33.256  23.735
1440.63  33.490  23.735
1441.13  33.256  23.735
1441.63  33.490  23.735
1442.13  33.373  23.797
1442.63  33.373  23.735
1443.13  33.256  23.766
1443.63  33.373  23.735
1444.13  33.256  23.735
1444.63  33.373  23.735
1445.13  33.373  23.735
1445.63  33.256  23.735
1446.13  33.256  23.735
1446.63  33.139  23.735
1447.13  33.373  23.735
1447.63  33.256  23.735
1448.13  33.373  23.766
1448.63  33.373  23.705
1449.13  33.373  23.735
1449.63  33.373  23.766
1450.13  33.490  23.735
1450.63  33.373  23.705
1451.13  33.256  23.705
1451.63  33.373  23.766
1452.13  33.490  23.766
1452.63  33.373  23.735
1453.13  33.256  23.674
1453.63  33.373  23.797
1454.13  33.256  23.735
1454.63  33.373  23.766
1455.13  33.256  23.735
1455.63  33.373  23.735
1456.13  33.490  23.735
1456.63  33.490  23.735
1457.13  33.373  23.766
1457.63  33.373  23.735
1458.13  33.373  23.735
1458.63  33.373  23.705
1459.13  33.373  23.766
1459.63  33.373  23.766
1460.13  33.373  23.705
1460.63  33.490  23.735
1461.13  33.490  23.735
1461.63  33.373  23.766
1462.13  33.490  23.766
1462.63  33.373  23.735
1463.13  33.490  23.766
1463.63  33.490  23.766
1464.13  33.373  23.735
1464.63  33.373  23.735
1465.13  33.373  23.766
1465.63  33.373  23.735
1466.13  33.490  23.766
1466.63  33.256  23.766
1467.13  33.373  23.766
1467.63  33.490  23.766
1468.13  33.256  23.735
1468.63  33.490  23.705
1469.13  33.490  23.766
1469.63  33.373  23.705
1470.13  33.490  23.766
1470.63  33.373  23.735
1471.13  33.373  23.735
1471.63  33.373  23.766
1472.13  33.373  23.766
1472.63  33.373  23.674
1473.13  33.373  23.735
1473.63  33.373  23.735
1474.13  33.373  23.735
1474.63  33.373  23.766
1475.13  33.490  23.766
1475.63  33.490  23.735
1476.13  33.490  23.766
1476.63  33.373  23.735
1477.13  33.373  23.735
1477.63  33.373  23.766
1478.13  33.373  23.735
1478.63  33.490  23.735
1479.13  33.490  23.735
1479.63  33.373  23.735
1480.13  33.373  23.735
1480.63  33.490  23.735
1481.13  33.490  23.766
1481.63  33.373  23.766
1482.13  33.256  23.735
1482.63  33.490  23.735
1483.13  33.490  23.766
1483.63  33.373  23.766
1484.13  33.490  23.735
1484.63  33.373  23.735
1485.13  33.490  23.735
1485.63  33.373  23.766
1486.13  33.490  23.735
1486.63  33.373  23.735
1487.13  33.490  23.735
1487.63  33.373  23.797
1488.13  33.490  23.766
1488.63  33.607  23.766
1489.13  33.490  23.797
1489.63  33.256  23.766
1490.13  33.490  23.766
1490.63  33.373  23.766
1491.13  33.256  23.674
1491.63  33.490  23.735
1492.13  33.490  23.735
1492.63  33.373  23.735
1493.13  33.490  23.735
1493.63  33.490  23.766
1494.13  33.490  23.766
1494.63  33.490  23.766
1495.13  33.373  23.766
1495.63  33.490  23.735
1496.13  33.607  23.766
1496.63  33.490  23.766
1497.13  33.490  23.859
1497.63  33.724  23.797
1498.13  33.373  23.766
1498.63  33.373  23.766
1499.13  33.490  23.766
1499.63  33.490  23.735
1500.13  33.607  23.766
1500.63  33.490  23.735
1501.13  33.607  23.735
1501.63  33.490  23.828
1502.13  33.607  23.735
1502.63  33.490  23.735
1503.13  33.490  23.766
1503.63  33.373  23.766
1504.13  33.724  23.735
1504.63  33.490  23.766
1505.13  33.607  23.766
1505.63  33.490  23.766
1506.13  33.373  23.797
1506.63  33.607  23.766
1507.13  33.957  23.766
1507.63  33.490  23.735
1508.13  33.490  23.766
1508.63  33.490  23.766
1509.13  33.724  23.797
1509.63  33.490  23.735
1510.13  33.373  23.797
1510.63  33.607  23.705
1511.13  33.490  23.797
1511.63  33.373  23.797
1512.13  33.607  23.735
1512.63  33.490  23.735
1513.13  33.490  23.735
1513.63  33.490  23.735
1514.13  33.607  23.766
1514.63  33.373  23.735
1515.13  33.490  23.766
1515.63  33.607  23.766
1516.13  33.373  23.735
1516.63  33.490  23.766
1517.13  33.490  23.705
1517.63  33.373  23.735
1518.13  33.724  23.766
1518.63  33.490  23.766
1519.13  33.490  23.735
1519.63  33.373  23.828
1520.13  33.490  23.705
1520.63  33.490  23.766
1521.13  33.490  23.735
1521.63  33.256  23.766
1522.13  33.490  23.797
1522.63  33.373  23.766
1523.13  33.490  23.766
1523.63  33.490  23.735
1524.13  33.607  23.766
1524.63  33.490  23.766
1525.13  33.490  23.797
1525.63  33.607  23.797
1526.13  33.607  23.766
1526.63  33.607  23.766
1527.13  33.607  23.766
1527.63  33.607  23.735
1528.13  33.607  23.797
1528.63  33.490  23.766
1529.13  33.724  23.766
1529.64  33.607  23.766
1530.14  33.607  23.766
1530.64  33.607  23.797
1531.14  33.607  23.766
1531.64  33.607  23.766
1532.14  33.607  23.705
1532.64  33.607  23.735
1533.14  33.607  23.766
1533.64  33.373  23.766
1534.14  33.490  23.705
1534.64  33.724  23.797
1535.14  33.490  23.735
1535.64  33.490  23.766
1536.14  33.724  23.735
1536.64  33.724  23.797
1537.14  33.490  23.766
1537.64  33.724  23.797
1538.14  33.607  23.735
1538.64  33.607  23.797
1539.14  33.607  23.766
1539.64  33.373  23.735
1540.14  33.724  23.735
1540.64  33.490  23.735
1541.14  33.724  23.766
1541.64  33.607  23.735
1542.14  33.373  23.766
1542.64  33.490  23.735
1543.14  33.724  23.735
1543.64  33.490  23.735
1544.14  33.607  23.766
1544.64  33.607  23.766
1545.14  33.607  23.766
1545.64  33.607  23.766
1546.14  33.607  23.735
1546.64  33.607  23.797
1547.14  33.607  23.766
1547.64  33.607  23.735
1548.14  33.841  23.766
1548.64  33.490  23.766
1549.14  33.607  23.766
1549.64  33.607  23.735
1550.14  33.607  23.766
1550.64  33.607  23.766
1551.14  33.490  23.766
1551.64  33.490  23.735
1552.14  33.607  23.766
1552.64  33.490  23.766
1553.14  33.607  23.735
1553.64  33.724  23.797
1554.14  33.724  23.797
1554.64  33.607  23.766
1555.14  33.724  23.735
1555.64  33.607  23.705
1556.14  33.724  23.766
1556.64  33.607  23.766
1557.14  33.607  23.797
1557.64  33.724  23.735
1558.14  33.607  23.766
1558.64  33.724  23.766
1559.14  33.724  23.766
1559.64  33.607  23.735
1560.14  33.607  23.766
1560.64  33.724  23.766
1561.14  33.724  23.766
1561.64  33.607  23.766
1562.14  33.724  23.797
1562.64  33.724  23.797
1563.14  33.724  23.735
1563.64  33.607  23.766
1564.14  33.724  23.766
1564.64  33.724  23.766
1565.14  33.724  23.766
1565.64  33.607  23.766
1566.14  33.724  23.766
1566.64  33.724  23.766
1567.14  33.724  23.735
1567.64  33.607  23.797
1568.14  33.724  23.766
1568.64  33.724  23.766
1569.14  33.724  23.797
1569.64  33.724  23.735
1570.14  33.490  23.735
1570.64  33.607  23.766
1571.14  33.607  23.766
1571.64  33.724  23.766
1572.14  33.490  23.797
1572.64  33.607  23.766
1573.14  33.724  23.766
1573.64  33.490  23.766
1574.14  33.490  23.766
1574.64  33.724  23.766
1575.14  33.724  23.735
1575.64  33.490  23.766
1576.14  33.607  23.797
1576.64  33.607  23.797
1577.14  33.841  23.735
1577.64  33.607  23.766
1578.14  33.607  23.859
1578.64  33.841  23.766
1579.14  33.724  23.735
1579.64  33.724  23.766
1580.14  33.724  23.766
1580.64  33.607  23.766
1581.14  33.724  23.797
1581.64  33.724  23.797
1582.14  33.724  23.797
1582.64  33.490  23.766
1583.14  33.607  23.766
1583.64  33.724  23.797
1584.14  33.724  23.797
1584.64  33.607  23.766
1585.14  33.607  23.766
1585.64  33.724  23.766
1586.14  33.607  23.766
1586.64  33.724  23.797
1587.14  33.724  23.766
1587.64  33.607  23.735
1588.14  33.724  23.766
1588.64  33.607  23.766
1589.14  33.724  23.766
1589.64  33.607  23.797
1590.14  33.841  23.797
1590.64  33.724  23.766
1591.14  33.724  23.766
1591.64  33.607  23.766
1592.14  33.724  23.766
1592.64  33.724  23.797
1593.14  33.724  23.797
1593.64  33.724  23.766
1594.14  33.490  23.766
1594.64  33.724  23.766
1595.14  33.724  23.797
1595.64  33.724  23.797
1596.14  33.724  23.766
1596.64  33.724  23.766
1597.14  33.724  23.766
1597.64  33.724  23.735
1598.14  33.957  23.766
1598.64  33.607  23.735
1599.14  33.724  23.766
1599.64  33.607  23.766
1600.14  33.841  23.735
1600.64  33.724  23.766
1601.14  33.841  23.735
1601.64  33.724  23.766
1602.14  33.724  23.766
1602.64  33.607  23.766
1603.14  33.607  23.797
1603.64  33.724  23.766
1604.14  33.724  23.797
1604.64  33.724  23.766
1605.14  33.724  23.735
1605.64  33.724  23.766
1606.14  33.724  23.766
1606.64  33.724  23.766
1607.14  33.724  23.766
1607.64  33.841  23.735
1608.14  33.724  23.766
1608.64  33.724  23.797
1609.14  33.724  23.766
1609.64  33.724  23.766
1610.14  33.841  23.766
1610.64  33.841  23.766
1611.14  33.841  23.797
1611.64  33.724  23.766
1612.14  33.607  23.797
1612.64  33.724  23.797
1613.14  33.724  23.797
1613.64  33.724  23.766
1614.14  33.841  23.766
1614.64  33.724  23.766
1615.14  33.841  23.797
1615.64  33.841  23.797
1616.14  33.841  23.797
1616.64  33.724  23.766
1617.14  33.841  23.766
1617.64  33.841  23.766
1618.14  33.841  23.797
1618.64  33.841  23.797
1619.14  33.724  23.766
1619.64  33.841  23.828
1620.14  33.957  23.797
1620.64  33.724  23.766
1621.14  33.841  23.766
1621.64  33.841  23.797
1622.14  33.841  23.766
1622.64  33.841  23.766
1623.14  33.724  23.735
1623.64  33.841  23.735
1624.14  33.724  23.766
1624.64  33.724  23.766
1625.14  33.841  23.797
1625.64  33.957  23.766
1626.14  33.841  23.797
1626.64  33.957  23.797
1627.14  33.841  23.766
1627.64  33.841  23.766
1628.14  33.841  23.766
1628.64  33.841  23.766
1629.14  33.841  23.766
1629.64  33.841  23.797
1630.14  34.074  23.766
1630.64  33.841  23.797
1631.14  33.724  23.797
1631.64  33.841  23.766
1632.14  33.957  23.797
1632.64  33.841  23.766
1633.14  33.841  23.766
1633.64  33.841  23.766
1634.14  33.841  23.797
1634.64  33.841  23.797
1635.14  33.724  23.797
1635.64  33.841  23.797
1636.14  33.841  23.797
1636.64  33.841  23.766
1637.14  33.957  23.766
1637.64  33.724  23.797
1638.14  33.957  23.766
1638.64  33.957  23.797
1639.14  33.724  23.735
1639.64  33.841  23.797
1640.14  33.724  23.797
1640.64  33.841  23.766
1641.14  33.841  23.797
1641.64  33.724  23.797
1642.14  33.841  23.766
1642.65  33.957  23.766
1643.15  33.957  23.766
1643.65  33.841  23.766
1644.15  33.841  23.797
1644.65  33.841  23.797
1645.15  33.841  23.735
1645.65  33.841  23.797
1646.15  33.841  23.797
1646.65  33.957  23.797
1647.15  33.841  23.797
1647.65  33.841  23.735
1648.15  33.957  23.766
1648.65  33.841  23.797
1649.15  33.957  23.797
1649.65  33.841  23.797
1650.15  33.957  23.735
1650.65  34.074  23.797
1651.15  33.724  23.797
1651.65  33.841  23.766
1652.15  33.957  23.797
1652.65  33.841  23.828
1653.15  33.841  23.797
1653.65  33.957  23.766
1654.15  33.841  23.797
1654.65  33.957  23.766
1655.15  33.841  23.797
1655.65  33.957  23.828
1656.15  33.724  23.797
1656.65  33.957  23.766
1657.15  33.841  23.766
1657.65  33.724  23.828
1658.15  33.957  23.766
1658.65  33.841  23.828
1659.15  33.957  23.766
1659.65  33.957  23.797
1660.15  33.841  23.797
1660.65  33.841  23.797
1661.15  33.957  23.828
1661.65  33.957  23.797
1662.15  33.841  23.797
1662.65  33.957  23.735
1663.15  33.841  23.735
1663.65  33.841  23.766
1664.15  33.841  23.797
1664.65  33.724  23.797
1665.15  33.957  23.766
1665.65  34.425  23.828
1666.15  33.724  23.797
1666.65  33.957  23.766
1667.15  33.724  23.797
1667.65  33.841  23.766
1668.15  33.841  23.797
1668.65  33.724  23.766
1669.15  33.724  23.766
1669.65  33.957  23.797
1670.15  33.957  23.797
1670.65  33.957  23.797
1671.15  33.841  23.766
1671.65  33.841  23.766
1672.15  33.841  23.766
1672.65  33.957  23.797
1673.15  33.841  23.797
1673.65  33.841  23.797
1674.15  34.074  23.828
1674.65  33.841  23.766
1675.15  33.957  23.797
1675.65  33.957  23.797
1676.15  33.957  23.797
1676.65  33.841  23.766
1677.15  33.957  23.797
1677.65  33.957  23.797
1678.15  33.841  23.797
1678.65  33.957  23.797
1679.15  33.957  23.766
1679.65  33.957  23.797
1680.15  33.957  23.766
1680.65  33.957  23.766
1681.15  33.957  23.797
1681.65  33.841  23.797
1682.15  33.841  23.797
1682.65  33.957  23.828
1683.15  33.841  23.797
1683.65  33.957  23.797
1684.15  33.957  23.766
1684.65  33.957  23.797
1685.15  33.957  23.766
1685.65  33.841  23.797
1686.15  34.191  23.797
1686.65  33.957  23.797
1687.15  33.841  23.797
1687.65  33.957  23.797
1688.15  33.841  23.797
1688.65  34.074  23.797
1689.15  33.841  23.797
1689.65  33.841  23.766
1690.15  33.957  23.859
1690.65  34.074  23.828
1691.15  33.957  23.797
1691.65  33.957  23.766
1692.15  33.957  23.797
1692.65  33.957  23.797
1693.15  33.957  23.766
1693.65  33.957  23.766
1694.15  34.074  23.797
1694.65  33.957  23.797
1695.15  33.957  23.797
1695.65  33.957  23.797
1696.15  33.957  23.797
1696.65  33.957  23.828
1697.15  33.957  23.797
1697.65  33.957  23.828
1698.15  33.841  23.797
1698.65  33.841  23.797
1699.15  33.957  23.797
1699.65  33.957  23.828
1700.15  33.957  23.797
1700.65  34.074  23.766
1701.15  33.957  23.797
1701.65  33.957  23.766
1702.15  34.191  23.735
1702.65  33.957  23.797
1703.15  33.957  23.766
1703.65  33.957  23.797
1704.15  34.074  23.828
1704.65  34.074  23.797
1705.15  34.074  23.828
1705.65  34.074  23.797
1706.15  33.957  23.828
1706.65  33.957  23.828
1707.15  33.957  23.797
1707.65  33.957  23.797
1708.15  34.074  23.766
1708.65  34.074  23.766
1709.15  33.957  23.766
1709.65  34.074  23.766
1710.15  33.957  23.766
1710.65  34.191  23.766
1711.15  34.074  23.797
1711.65  33.957  23.828
1712.15  33.957  23.797
1712.65  33.957  23.828
1713.15  34.074  23.797
1713.65  34.074  23.766
1714.15  33.957  23.766
1714.65  33.957  23.797
1715.15  33.957  23.859
1715.65  34.074  23.766
1716.15  33.957  23.797
1716.65  34.074  23.797
1717.15  34.074  23.797
1717.65  34.074  23.797
1718.15  34.074  23.797
1718.65  33.841  23.797
1719.15  33.841  23.828
1719.65  33.841  23.859
1720.15  34.074  23.797
1720.65  34.074  23.797
1721.15  34.074  23.797
1721.65  34.074  23.797
1722.15  34.074  23.797
1722.65  34.074  23.766
1723.15  34.074  23.797
1723.65  33.957  23.797
1724.15  33.841  23.797
1724.65  33.957  23.766
1725.15  34.074  23.735
1725.65  34.074  23.797
1726.15  33.957  23.797
1726.65  34.074  23.797
1727.15  34.074  23.797
1727.65  34.191  23.828
1728.15  33.957  23.797
1728.65  34.074  23.797
1729.15  34.074  23.797
1729.65  33.957  23.766
1730.15  34.074  23.797
1730.65  34.074  23.766
1731.15  33.841  23.828
1731.65  33.957  23.766
1732.15  33.957  23.797
1732.65  33.957  23.766
1733.15  34.074  23.828
1733.65  33.957  23.859
1734.15  33.957  23.797
1734.65  33.957  23.797
1735.15  34.074  23.797
1735.65  34.074  23.766
1736.15  33.957  23.797
1736.65  34.074  23.828
1737.15  34.074  23.797
1737.65  34.074  23.797
1738.15  33.957  23.797
1738.65  34.191  23.828
1739.15  33.841  23.797
1739.65  34.074  23.797
1740.15  33.957  23.766
1740.65  34.074  23.797
1741.15  34.191  23.797
1741.65  34.074  23.828
1742.15  34.074  23.828
1742.65  34.074  23.859
1743.15  34.074  23.828
1743.65  34.074  23.859
1744.15  34.074  23.766
1744.65  34.074  23.797
1745.15  33.957  23.828
1745.65  34.074  23.735
1746.15  34.191  23.859
1746.65  34.074  23.828
1747.15  34.074  23.828
1747.65  34.074  23.828
1748.15  34.074  23.828
1748.65  34.074  23.797
1749.15  34.074  23.797
1749.65  34.074  23.828
1750.15  34.074  23.797
1750.65  34.074  23.797
1751.15  34.191  23.797
1751.65  34.074  23.797
1752.15  34.191  23.828
1752.65  34.191  23.797
1753.15  34.074  23.828
1753.65  34.074  23.859
1754.15  34.074  23.797
1754.65  34.191  23.797
1755.15  34.074  23.828
1755.66  34.074  23.797
1756.16  33.957  23.797
1756.66  34.191  23.797
1757.16  33.957  23.797
1757.66  34.191  23.828
1758.16  34.074  23.828
1758.66  34.074  23.828
1759.16  34.191  23.797
1759.66  34.074  23.828
1760.16  33.957  23.828
1760.66  34.074  23.828
1761.16  34.074  23.797
1761.66  34.191  23.797
1762.16  34.191  23.797
1762.66  33.957  23.797
1763.16  33.957  23.828
1763.66  33.957  23.828
1764.16  33.957  23.828
1764.66  34.191  23.797
1765.16  33.957  23.797
1765.66  34.074  23.828
1766.16  33.957  23.797
1766.66  33.841  23.797
1767.16  34.191  23.828
1767.66  34.074  23.828
1768.16  34.074  23.797
1768.66  34.191  23.797
1769.16  34.074  23.828
1769.66  34.191  23.828
1770.16  34.191  23.828
1770.66  34.074  23.828
1771.16  34.074  23.797
1771.66  34.191  23.797
1772.16  34.074  23.766
1772.66  34.074  23.828
1773.16  34.191  23.797
1773.66  34.074  23.797
1774.16  34.074  23.797
1774.66  34.074  23.828
1775.16  33.957  23.797
1775.66  34.191  23.797
1776.16  34.191  23.797
1776.66  33.957  23.797
1777.16  34.191  23.828
1777.66  34.074  23.766
1778.16  34.074  23.828
1778.66  34.191  23.797
1779.16  34.074  23.766
1779.66  34.191  23.766
1780.16  34.191  23.797
1780.66  34.191  23.797
1781.16  34.308  23.828
1781.66  34.191  23.735
1782.16  34.074  23.797
1782.66  34.191  23.797
1783.16  34.191  23.797
1783.66  34.191  23.828
1784.16  34.074  23.797
1784.66  34.191  23.828
1785.16  34.191  23.797
1785.66  34.074  23.797
1786.16  34.074  23.828
1786.66  34.191  23.828
1787.16  34.074  23.797
1787.66  34.191  23.828
1788.16  34.191  23.828
1788.66  34.191  23.828
1789.16  34.191  23.828
1789.66  34.191  23.828
1790.16  34.308  23.828
1790.66  34.074  23.828
1791.16  34.308  23.797
1791.66  34.074  23.828
1792.16  34.074  23.828
1792.66  34.191  23.828
1793.16  34.191  23.797
1793.66  34.191  23.797
1794.16  34.191  23.797
1794.66  34.191  23.766
1795.16  34.074  23.797
1795.66  34.191  23.797
1796.16  34.191  23.828
1796.66  34.074  23.797
1797.16  34.191  23.828
1797.66  34.308  23.828
1798.16  34.191  23.797
1798.66  34.308  23.797
1799.16  34.074  23.797
1799.66  34.191  23.828
1800.16  34.191  23.766
1800.66  33.957  23.797
1801.16  34.191  23.797
1801.66  34.074  23.797
1802.16  34.191  23.828
1802.66  34.308  23.828
1803.16  34.191  23.828
1803.66  34.191  23.828
1804.16  34.074  23.797
1804.66  34.425  23.828
1805.16  34.308  23.797
1805.66  34.074  23.735
1806.16  34.308  23.828
1806.66  34.191  23.828
1807.16  34.308  23.828
1807.66  34.191  23.828
1808.16  34.308  23.859
1808.66  34.308  23.828
1809.16  34.191  23.828
1809.66  34.191  23.828
1810.16  34.191  23.828
1810.66  34.308  23.797
1811.16  34.191  23.797
1811.66  34.308  23.859
1812.16  34.191  23.828
1812.66  34.074  23.828
1813.16  34.308  23.828
1813.66  34.191  23.859
1814.16  34.191  23.828
1814.66  34.191  23.797
1815.16  34.308  23.828
1815.66  34.191  23.797
1816.16  34.191  23.828
1816.66  33.957  23.828
1817.16  34.191  23.828
1817.66  34.308  23.828
1818.16  34.074  23.797
1818.66  34.191  23.828
1819.16  34.191  23.797
1819.66  34.191  23.828
1820.16  34.191  23.828
1820.66  34.191  23.797
1821.16  34.308  23.828
1821.66  34.308  23.797
1822.16  34.191  23.828
1822.66  33.957  23.797
1823.16  34.191  23.828
1823.66  34.308  23.828
1824.16  34.191  23.766
1824.66  34.191  23.797
1825.16  34.191  23.828
1825.66  34.191  23.797
1826.16  34.191  23.859
1826.66  34.191  23.828
1827.16  34.191  23.797
1827.66  34.191  23.828
1828.16  34.191  23.828
1828.66  34.191  23.828
1829.16  34.308  23.797
1829.66  34.308  23.797
1830.16  33.957  23.797
1830.66  34.191  23.797
1831.16  34.308  23.797
1831.66  34.191  23.859
1832.16  34.074  23.828
1832.66  34.074  23.828
1833.16  34.191  23.828
1833.66  34.191  23.828
1834.16  34.308  23.797
1834.66  34.308  23.797
1835.16  34.191  23.828
1835.66  34.308  23.766
1836.16  34.308  23.766
1836.66  34.191  23.828
1837.16  34.191  23.828
1837.66  34.191  23.859
1838.16  34.191  23.766
1838.66  34.191  23.828
1839.16  34.191  23.797
1839.66  34.308  23.797
1840.16  34.308  23.828
1840.66  34.191  23.797
1841.16  34.308  23.828
1841.66  34.308  23.828
1842.16  34.659  23.828
1842.66  34.191  23.828
1843.16  34.308  23.797
1843.66  34.074  23.797
1844.16  34.425  23.797
1844.66  34.191  23.797
1845.16  34.308  23.859
1845.66  34.191  23.828
1846.16  34.308  23.828
1846.66  34.425  23.797
1847.16  34.308  23.797
1847.66  34.308  23.828
1848.16  34.308  23.828
1848.66  34.308  23.828
1849.16  34.191  23.828
1849.66  34.425  23.828
1850.16  34.308  23.828
1850.66  34.308  23.797
1851.16  34.425  23.797
1851.66  34.425  23.828
1852.16  34.308  23.797
1852.66  34.191  23.859
1853.16  34.425  23.828
1853.66  34.308  23.859
1854.16  34.191  23.797
1854.66  34.191  23.828
1855.16  34.191  23.828
1855.66  34.308  23.797
1856.16  34.425  23.889
1856.66  34.425  23.828
1857.16  34.308  23.797
1857.66  34.191  23.828
1858.16  34.308  23.797
1858.66  34.308  23.889
1859.16  34.308  23.828
1859.66  34.425  23.828
1860.16  34.308  23.797
1860.66  34.425  23.828
1861.16  34.308  23.828
1861.66  34.308  23.828
1862.16  34.191  23.828
1862.66  34.191  23.797
1863.16  34.308  23.797
1863.66  34.308  23.828
1864.16  34.425  23.828
1864.66  34.191  23.828
1865.16  34.425  23.797
1865.66  34.425  23.859
1866.16  34.308  23.828
1866.66  34.425  23.859
1867.16  34.425  23.828
1867.66  34.191  23.797
1868.16  34.308  23.828
1868.66  34.308  23.828
1869.17  34.308  23.828
1869.67  34.308  23.859
1870.17  34.191  23.859
1870.67  34.308  23.797
1871.17  34.308  23.828
1871.67  34.191  23.859
1872.17  34.308  23.828
1872.67  34.191  23.797
1873.17  34.308  23.828
1873.67  34.425  23.828
1874.17  34.425  23.828
1874.67  34.191  23.797
1875.17  34.191  23.828
1875.67  34.425  23.859
1876.17  34.425  23.859
1876.67  34.425  23.859
1877.17  34.191  23.797
1877.67  34.308  23.828
1878.17  34.308  23.828
1878.67  34.191  23.828
1879.17  34.425  23.828
1879.67  34.425  23.828
1880.17  34.191  23.828
1880.67  34.308  23.828
1881.17  34.425  23.828
1881.67  34.308  23.828
1882.17  34.425  23.828
1882.67  34.425  23.859
1883.17  34.308  23.859
1883.67  34.542  23.828
1884.17  34.308  23.797
1884.67  34.308  23.889
1885.17  34.425  23.828
1885.67  34.425  23.828
1886.17  34.308  23.828
1886.67  34.425  23.828
1887.17  34.542  23.828
1887.67  34.308  23.828
1888.17  34.308  23.859
1888.67  34.308  23.828
1889.17  34.308  23.828
1889.67  34.542  23.828
1890.17  34.308  23.859
1890.67  34.542  23.859
1891.17  34.308  23.859
1891.67  34.308  23.859
1892.17  34.308  23.828
1892.67  34.308  23.828
1893.17  34.308  23.797
1893.67  34.191  23.828
1894.17  34.425  23.828
1894.67  34.074  23.828
1895.17  34.425  23.828
1895.67  34.425  23.828
1896.17  34.308  23.859
1896.67  34.425  23.859
1897.17  34.425  23.859
1897.67  34.425  23.766
1898.17  34.308  23.828
1898.67  34.425  23.828
1899.17  34.191  23.797
1899.67  34.425  23.859
1900.17  34.425  23.828
1900.67  34.425  23.828
1901.17  34.308  23.828
1901.67  34.308  23.828
1902.17  34.308  23.859
1902.67  34.308  23.889
1903.17  34.308  23.859
1903.67  34.308  23.859
1904.17  34.425  23.828
1904.67  34.542  23.828
1905.17  34.425  23.828
1905.67  34.425  23.828
1906.17  34.308  23.828
1906.67  34.308  23.859
1907.17  34.425  23.859
1907.67  34.425  23.859
1908.17  34.308  23.828
1908.67  34.191  23.859
1909.17  34.425  23.828
1909.67  34.425  23.828
1910.17  34.425  23.797
1910.67  34.425  23.828
1911.17  34.425  23.828
1911.67  34.425  23.859
1912.17  34.074  23.828
1912.67  34.308  23.859
1913.17  34.308  23.828
1913.67  34.425  23.859
1914.17  34.308  23.859
1914.67  34.308  23.828
1915.17  34.425  23.797
1915.67  34.425  23.828
1916.17  34.425  23.828
1916.67  34.308  23.828
1917.17  34.425  23.828
1917.67  34.425  23.828
1918.17  34.308  23.828
1918.67  34.425  23.859
1919.17  34.308  23.828
1919.67  34.425  23.859
1920.17  34.308  23.859
1920.67  34.425  23.859
1921.17  34.191  23.828
1921.67  34.308  23.828
1922.17  34.308  23.766
1922.67  34.425  23.828
1923.17  34.425  23.797
1923.67  34.425  23.859
1924.17  34.425  23.828
1924.67  34.425  23.859
1925.17  34.425  23.828
1925.67  34.308  23.828
1926.17  34.308  23.859
1926.67  34.425  23.828
1927.17  34.425  23.828
1927.67  34.542  23.766
1928.17  34.308  23.828
1928.67  34.659  23.828
1929.17  34.425  23.828
1929.67  34.308  23.828
1930.17  34.425  23.859
1930.67  34.542  23.828
1931.17  34.425  23.828
1931.67  34.425  23.828
1932.17  34.308  23.828
1932.67  34.425  23.828
1933.17  34.425  23.828
1933.67  34.425  23.859
1934.17  34.308  23.828
1934.67  34.308  23.797
1935.17  34.425  23.859
1935.67  34.308  23.859
1936.17  34.308  23.859
1936.67  34.542  23.828
1937.17  34.542  23.797
1937.67  34.308  23.828
1938.17  34.425  23.859
1938.67  34.425  23.859
1939.17  34.542  23.859
1939.67  34.425  23.828
1940.17  34.542  23.859
1940.67  34.425  23.828
1941.17  34.425  23.828
1941.67  34.425  23.828
1942.17  34.542  23.828
1942.67  34.542  23.859
1943.17  34.542  23.828
1943.67  34.542  23.828
1944.17  34.425  23.828
1944.67  34.425  23.828
1945.17  34.308  23.828
1945.67  34.425  23.859
1946.17  34.425  23.859
1946.67  34.425  23.859
1947.17  34.542  23.828
1947.67  34.542  23.889
1948.17  34.425  23.859
1948.67  34.542  23.859
1949.17  34.542  23.889
1949.67  34.308  23.859
1950.17  34.542  23.828
1950.67  34.425  23.859
1951.17  34.542  23.859
1951.67  34.659  23.859
1952.17  34.425  23.859
1952.67  34.425  23.859
1953.17  34.542  23.889
1953.67  34.659  23.859
1954.17  34.542  23.859
1954.67  34.425  23.859
1955.17  34.542  23.889
1955.67  34.425  23.889
1956.17  34.542  23.859
1956.67  34.425  23.889
1957.17  34.542  23.828
1957.67  34.542  23.859
1958.17  34.425  23.828
1958.67  34.542  23.828
1959.17  34.542  23.859
1959.67  34.542  23.859
1960.17  34.542  23.859
1960.67  34.425  23.828
1961.17  34.425  23.859
1961.67  34.425  23.859
1962.17  34.425  23.828
1962.67  34.542  23.859
1963.17  34.542  23.859
1963.67  34.542  23.920
1964.17  34.659  23.828
1964.67  34.425  23.859
1965.17  34.425  23.828
1965.67  34.425  23.828
1966.17  34.542  23.828
1966.67  34.542  23.889
1967.17  34.425  23.859
1967.67  34.542  23.859
1968.17  34.542  23.828
1968.67  34.542  23.828
1969.17  34.542  23.859
1969.67  34.425  23.859
1970.17  34.659  23.828
1970.67  34.542  23.859
1971.17  34.659  23.859
1971.67  34.542  23.859
1972.17  34.542  23.859
1972.67  34.542  23.859
1973.17  34.308  23.828
1973.67  34.542  23.828
1974.17  34.542  23.889
1974.67  34.542  23.859
1975.17  34.425  23.828
1975.67  34.425  23.859
1976.17  34.425  23.859
1976.67  34.542  23.889
1977.17  34.542  23.859
1977.67  34.542  23.828
1978.17  34.191  23.859
1978.67  34.542  23.859
1979.17  34.542  23.859
1979.67  34.659  23.859
1980.17  34.542  23.828
1980.67  34.542  23.920
1981.17  34.542  23.828
1981.67  34.542  23.828
1982.18  34.542  23.859
1982.68  34.542  23.889
1983.18  34.425  23.889
1983.68  34.425  23.859
1984.18  34.542  23.859
1984.68  34.308  23.828
1985.18  34.659  23.859
1985.68  34.425  23.828
1986.18  34.425  23.859
1986.68  34.542  23.889
1987.18  34.542  23.889
1987.68  34.542  23.828
1988.18  34.425  23.859
1988.68  34.425  23.859
1989.18  34.659  23.859
1989.68  34.542  23.828
1990.18  34.659  23.859
1990.68  34.542  23.859
1991.18  34.542  23.859
1991.68  34.659  23.828
1992.18  34.542  23.828
1992.68  34.659  23.859
1993.18  34.659  23.889
1993.68  34.659  23.859
1994.18  34.542  23.828
1994.68  34.542  23.859
1995.18  34.542  23.859
1995.68  34.425  23.889
1996.18  34.425  23.859
1996.68  34.776  23.889
1997.18  34.542  23.828
1997.68  34.425  23.859
1998.18  34.659  23.889
1998.68  34.776  23.859
1999.18  34.542  23.889
1999.68  34.542  23.859
2000.18  34.542  23.889
2000.68  34.659  23.859
2001.18  34.659  23.828
2001.68  34.659  23.889
2002.18  34.542  23.859
2002.68  34.542  23.828
2003.18  34.542  23.859
2003.68  34.892  23.828
2004.18  34.542  23.889
2004.68  34.776  23.889
2005.18  34.659  23.859
2005.68  34.542  23.859
2006.18  34.776  23.859
2006.68  34.542  23.859
2007.18  34.542  23.859
2007.68  34.542  23.859
2008.18  34.542  23.828
2008.68  34.542  23.859
2009.18  34.542  23.889
2009.68  34.542  23.828
2010.18  34.542  23.859
2010.68  34.659  23.859
2011.18  34.776  23.859
2011.68  34.542  23.859
2012.18  34.659  23.828
2012.68  34.776  23.889
2013.18  34.542  23.828
2013.68  34.542  23.859
2014.18  34.425  23.859
2014.68  34.542  23.859
2015.18  34.542  23.859
2015.68  34.659  23.859
2016.18  34.659  23.859
2016.68  34.659  23.859
2017.18  34.542  23.859
2017.68  34.542  23.889
2018.18  34.659  23.889
2018.68  34.542  23.859
2019.18  34.425  23.889
2019.68  34.659  23.859
2020.18  34.542  23.859
2020.68  34.542  23.828
2021.18  34.659  23.859
2021.68  34.542  23.859
2022.18  34.659  23.828
2022.68  34.659  23.859
2023.18  34.659  23.859
2023.68  34.659  23.889
2024.18  34.542  23.859
2024.68  34.659  23.859
2025.18  34.659  23.828
2025.68  34.542  23.859
2026.18  34.542  23.859
2026.68  34.659  23.889
2027.18  34.659  23.828
2027.68  34.542  23.859
2028.18  34.542  23.828
2028.68  34.542  23.859
2029.18  34.659  23.920
2029.68  34.542  23.859
2030.18  34.659  23.859
2030.68  34.659  23.889
2031.18  34.659  23.828
2031.68  34.659  23.889
2032.18  34.542  23.859
2032.68  34.776  23.828
2033.18  34.659  23.859
2033.68  34.659  23.859
2034.18  34.542  23.859
2034.68  34.659  23.859
2035.18  34.659  23.889
2035.68  34.659  23.889
2036.18  34.659  23.889
2036.68  34.659  23.889
2037.18  34.542  23.889
2037.68  34.776  23.859
2038.18  34.659  23.859
2038.68  34.542  23.859
2039.18  34.776  23.889
2039.68  34.776  23.951
2040.18  34.659  23.859
2040.68  34.425  23.859
2041.18  34.659  23.889
2041.68  34.659  23.859
2042.18  34.659  23.889
2042.68  34.776  23.889
2043.18  34.776  23.889
2043.68  34.659  23.859
2044.18  34.659  23.889
2044.68  34.659  23.828
2045.18  34.659  23.889
2045.68  34.659  23.889
2046.18  34.542  23.859
2046.68  34.542  23.828
2047.18  34.659  23.889
2047.68  34.542  23.859
2048.18  34.776  23.859
2048.68  34.776  23.859
2049.18  34.776  23.889
2049.68  34.892  23.889
2050.18  34.659  23.889
2050.68  34.892  23.859
2051.18  34.542  23.920
2051.68  34.776  23.859
2052.18  34.776  23.859
2052.68  34.776  23.889
2053.18  34.659  23.859
2053.68  34.659  23.889
2054.18  34.542  23.859
2054.68  34.659  23.889
2055.18  34.776  23.859
2055.68  34.542  23.859
2056.18  34.776  23.889
2056.68  34.659  23.889
2057.18  34.542  23.859
2057.68  34.659  23.859
2058.18  34.542  23.859
2058.68  34.659  23.889
2059.18  34.659  23.859
2059.68  34.776  23.889
2060.18  34.659  23.859
2060.68  34.659  23.889
2061.18  34.776  23.889
2061.68  34.659  23.889
2062.18  34.659  23.889
2062.68  34.659  23.859
2063.18  34.659  23.920
2063.68  34.659  23.859
2064.18  34.659  23.859
2064.68  34.659  23.859
2065.18  34.542  23.859
2065.68  34.776  23.889
2066.18  34.659  23.889
2066.68  34.542  23.889
2067.18  34.542  23.889
2067.68  34.659  23.859
2068.18  34.542  23.889
2068.68  34.659  23.859
2069.18  34.659  23.859
2069.68  34.659  23.889
2070.18  34.542  23.889
2070.68  34.659  23.859
2071.18  34.659  23.859
2071.68  34.659  23.859
2072.18  34.542  23.859
2072.68  34.542  23.889
2073.18  34.659  23.889
2073.68  34.659  23.859
2074.18  34.542  23.859
2074.68  34.776  23.828
2075.18  34.659  23.889
2075.68  34.659  23.859
2076.18  34.659  23.859
2076.68  34.542  23.859
2077.18  34.659  23.859
2077.68  34.659  23.889
2078.18  34.659  23.889
2078.68  34.659  23.889
2079.18  34.542  23.859
2079.68  34.659  23.889
2080.18  34.659  23.859
2080.68  34.542  23.859
2081.18  34.659  23.859
2081.68  34.542  23.889
2082.18  34.542  23.889
2082.68  34.776  23.859
2083.18  34.659  23.859
2083.68  34.542  23.889
2084.18  34.542  23.859
2084.68  34.776  23.828
2085.18  34.659  23.859
2085.68  34.659  23.859
2086.18  34.659  23.859
2086.68  34.892  23.859
2087.18  34.659  23.889
2087.68  34.542  23.859
2088.18  34.659  23.828
2088.68  34.542  23.889
2089.18  34.425  23.828
2089.68  34.776  23.889
2090.18  34.776  23.889
2090.68  34.776  23.859
2091.18  34.542  23.859
2091.68  34.776  23.889
2092.18  34.776  23.859
2092.68  34.776  23.889
2093.18  34.659  23.889
2093.68  34.776  23.859
2094.18  34.776  23.859
2094.68  34.776  23.859
2095.19  34.776  23.859
2095.69  34.659  23.889
2096.19  34.776  23.859
2096.69  34.776  23.859
2097.19  34.776  23.859
2097.69  34.542  23.859
2098.19  34.659  23.859
2098.69  34.659  23.889
2099.19  34.542  23.889
2099.69  34.542  23.889
2100.19  34.892  23.889
2100.69  34.659  23.859
2101.19  34.659  23.920
2101.69  34.776  23.859
2102.19  34.659  23.889
2102.69  34.776  23.828
2103.19  34.659  23.889
2103.69  34.659  23.859
2104.19  34.776  23.889
2104.69  34.542  23.859
2105.19  34.776  23.889
2105.69  34.659  23.859
2106.19  34.542  23.859
2106.69  34.542  23.859
2107.19  34.659  23.889
2107.69  34.659  23.859
2108.19  34.892  23.859
2108.69  34.776  23.859
2109.19  34.776  23.889
2109.69  34.776  23.859
2110.19  34.776  23.889
2110.69  34.892  23.889
2111.19  34.892  23.828
2111.69  34.776  23.889
2112.19  34.659  23.859
2112.69  34.776  23.859
2113.19  34.542  23.920
2113.69  34.776  23.859
2114.19  34.659  23.889
2114.69  34.776  23.889
2115.19  34.776  23.889
2115.69  34.659  23.889
2116.19  34.659  23.859
2116.69  34.776  23.889
2117.19  34.659  23.859
2117.69  34.892  23.859
2118.19  34.659  23.889
2118.69  34.542  23.889
2119.19  35.069  23.889
2119.69  34.776  23.889
2120.19  34.659  23.889
2120.69  34.776  23.889
2121.19  34.776  23.889
2121.69  34.776  23.920
2122.19  34.892  23.920
2122.69  34.776  23.859
2123.19  34.776  23.828
2123.69  34.776  23.920
2124.19  34.776  23.889
2124.69  34.892  23.859
2125.19  34.892  23.889
2125.69  34.892  23.889
2126.19  34.776  23.859
2126.69  34.776  23.889
2127.19  34.776  23.859
2127.69  34.892  23.889
2128.19  34.776  23.859
2128.69  34.776  23.889
2129.19  34.776  23.889
2129.69  34.659  23.920
2130.19  34.776  23.889
2130.69  34.776  23.920
2131.19  34.659  23.889
2131.69  34.776  23.889
2132.19  34.892  23.920
2132.69  34.892  23.920
2133.19  34.776  23.889
2133.69  34.892  23.920
2134.19  34.776  23.920
2134.69  35.005  23.889
2135.19  34.892  23.889
2135.69  35.005  23.889
2136.19  34.776  23.889
2136.69  34.892  23.889
2137.19  34.776  23.859
2137.69  34.659  23.889
2138.19  34.892  23.889
2138.69  34.776  23.889
2139.19  34.659  23.859
2139.69  34.776  23.889
2140.19  34.892  23.859
2140.69  34.776  23.859
2141.19  34.659  23.920
2141.69  35.069  23.889
2142.19  34.776  23.859
2142.69  34.892  23.859
2143.19  34.776  23.920
2143.69  34.776  23.920
2144.19  34.659  23.889
2144.69  34.776  23.889
2145.19  34.892  23.889
2145.69  34.659  23.889
2146.19  34.776  23.859
2146.69  34.659  23.859
2147.19  34.892  23.859
2147.69  34.776  23.859
2148.19  34.776  23.859
2148.69  34.659  23.859
2149.19  34.892  23.889
2149.69  34.776  23.859
2150.19  34.776  23.889
2150.69  34.892  23.920
2151.19  35.005  23.889
2151.69  34.892  23.889
2152.19  34.776  23.859
2152.69  34.776  23.859
2153.19  34.892  23.859
2153.69  34.776  23.889
2154.19  35.005  23.859
2154.69  34.892  23.951
2155.19  34.776  23.889
2155.69  34.776  23.920
2156.19  34.892  23.889
2156.69  34.776  23.889
2157.19  34.892  23.920
2157.69  34.659  23.889
2158.19  34.776  23.920
2158.69  34.892  23.889
2159.19  34.659  23.920
2159.69  34.776  23.889
2160.19  34.892  23.889
2160.69  34.892  23.920
2161.19  34.892  23.859
2161.69  34.776  23.859
2162.19  34.776  23.859
2162.69  34.776  23.889
2163.19  34.776  23.859
2163.69  34.776  23.889
2164.19  35.005  23.889
2164.69  34.892  23.889
2165.19  34.776  23.859
2165.69  35.005  23.889
2166.19  34.776  23.859
2166.69  34.659  23.920
2167.19  34.776  23.889
2167.69  34.776  23.889
2168.19  34.776  23.859
2168.69  34.892  23.859
2169.19  34.776  23.889
2169.69  34.776  23.889
2170.19  34.776  23.859
2170.69  34.659  23.889
2171.19  34.892  23.889
2171.69  34.776  23.889
2172.19  34.776  23.920
2172.69  34.776  23.859
2173.19  34.892  23.889
2173.69  34.892  23.889
2174.19  34.776  23.889
2174.69  34.776  23.889
2175.19  34.776  23.859
2175.69  34.892  23.859
2176.19  35.069  23.889
2176.69  34.892  23.889
2177.19  34.776  23.889
2177.69  34.892  23.920
2178.19  34.892  23.889
2178.69  34.892  23.889
2179.19  34.892  23.889
2179.69  34.892  23.889
2180.19  34.892  23.920
2180.69  34.892  23.920
2181.19  34.892  23.889
2181.69  34.892  23.951
2182.19  34.892  23.889
2182.69  34.892  23.889
2183.19  34.892  23.920
2183.69  34.892  23.951
2184.19  34.776  23.889
2184.69  34.892  23.889
2185.19  34.892  23.859
2185.69  34.776  23.889
2186.19  35.005  23.889
2186.69  34.892  23.920
2187.19  35.005  23.889
2187.69  34.776  23.920
2188.19  34.892  23.828
2188.69  34.892  23.889
2189.19  34.892  23.889
2189.69  35.005  23.889
2190.19  34.776  23.889
2190.69  34.776  23.889
2191.19  34.892  23.889
2191.69  34.892  23.889
2192.19  35.005  23.920
2192.69  34.892  23.889
2193.19  34.892  23.920
2193.69  34.776  23.889
2194.19  34.892  23.889
2194.69  34.892  23.889
2195.19  34.892  23.859
2195.69  34.892  23.920
2196.19  35.133  23.889
2196.69  34.776  23.889
2197.19  34.892  23.889
2197.70  34.892  23.889
2198.20  34.892  23.889
2198.70  35.005  23.951
2199.20  34.659  23.889
2199.70  34.776  23.889
2200.20  34.892  23.859
2200.70  34.776  23.859
2201.20  34.892  23.889
2201.70  34.542  23.889
2202.20  34.776  23.859
2202.70  34.892  23.889
2203.20  34.776  23.859
2203.70  35.005  23.889
2204.20  34.892  23.889
2204.70  35.005  23.920
2205.20  34.776  23.920
2205.70  34.892  23.889
2206.20  34.892  23.920
2206.70  34.776  23.889
2207.20  34.776  23.889
2207.70  34.659  23.889
2208.20  34.776  23.920
2208.70  35.005  23.920
2209.20  34.776  23.889
2209.70  35.005  23.859
2210.20  35.005  23.920
2210.70  34.776  23.889
2211.20  35.005  23.920
2211.70  34.776  23.920
2212.20  35.005  23.920
2212.70  34.892  23.889
2213.20  34.659  23.920
2213.70  35.005  23.920
2214.20  34.892  23.889
2214.70  34.892  23.920
2215.20  34.892  23.920
2215.70  34.892  23.920
2216.20  34.892  23.889
2216.70  35.069  23.889
2217.20  34.776  23.920
2217.70  35.005  23.889
2218.20  34.776  23.889
2218.70  34.776  23.889
2219.20  34.776  23.920
2219.70  35.005  23.951
2220.20  34.892  23.920
2220.70  34.776  23.951
2221.20  34.892  23.889
2221.70  34.892  23.920
2222.20  34.776  23.859
2222.70  34.892  23.889
2223.20  35.133  23.920
2223.70  34.892  23.920
2224.20  34.892  23.920
2224.70  34.659  23.889
2225.20  35.005  23.951
2225.70  34.892  23.951
2226.20  34.776  23.859
2226.70  34.776  23.889
2227.20  34.892  23.889
2227.70  34.892  23.920
2228.20  35.005  23.920
2228.70  35.005  23.859
2229.20  34.892  23.889
2229.70  34.892  23.920
2230.20  35.005  23.920
2230.70  35.069  23.951
2231.20  34.892  23.920
2231.70  34.892  23.920
2232.20  34.892  23.889
2232.70  34.892  23.859
2233.20  35.005  23.889
2233.70  34.776  23.889
2234.20  34.892  23.920
2234.70  34.892  23.889
2235.20  34.892  23.920
2235.70  35.069  23.889
2236.20  34.892  23.889
2236.70  35.005  23.920
2237.20  35.069  23.920
2237.70  35.197  23.889
2238.20  34.892  23.920
2238.70  34.776  23.859
2239.20  34.892  23.920
2239.70  35.005  23.951
2240.20  34.892  23.889
2240.70  34.776  23.889
2241.20  35.133  23.920
2241.70  35.005  23.920
2242.20  34.892  23.859
2242.70  34.892  23.920
2243.20  34.659  23.889
2243.70  34.892  23.920
2244.20  35.005  23.889
2244.70  34.776  23.920
2245.20  34.776  23.920
2245.70  34.892  23.920
2246.20  34.776  23.920
2246.70  34.892  23.859
2247.20  34.892  23.859
2247.70  34.776  23.889
2248.20  34.892  23.920
2248.70  34.892  23.889
2249.20  34.892  23.889
2249.70  35.005  23.920
2250.20  34.892  23.920
2250.70  34.892  23.920
2251.20  35.005  23.920
2251.70  35.005  23.889
2252.20  35.005  23.889
2252.70  35.005  23.920
2253.20  35.133  23.889
2253.70  35.005  23.951
2254.20  35.005  23.920
2254.70  34.776  23.920
2255.20  35.005  23.920
2255.70  35.005  23.889
2256.20  35.005  23.889
2256.70  35.005  23.889
2257.20  35.005  23.920
2257.70  35.005  23.920
2258.20  34.776  23.920
2258.70  35.005  23.920
2259.20  35.005  23.920
2259.70  34.776  23.920
2260.20  35.005  23.951
2260.70  35.069  23.920
2261.20  35.005  23.889
2261.70  35.005  23.920
2262.20  34.892  23.920
2262.70  35.069  23.889
2263.20  34.892  23.920
2263.70  35.005  23.920
2264.20  35.069  23.889
2264.70  35.005  23.920
2265.20  34.892  23.951
2265.70  34.892  23.889
2266.20  34.892  23.920
2266.70  35.005  23.920
2267.20  35.005  23.859
2267.70  35.133  23.889
2268.20  34.892  23.920
2268.70  35.005  23.920
2269.20  35.005  23.951
2269.70  35.005  23.951
2270.20  34.892  23.920
2270.70  35.005  23.920
2271.20  34.892  23.889
2271.70  35.069  23.951
2272.20  34.892  23.889
2272.70  34.892  23.920
2273.20  35.005  23.920
2273.70  35.069  23.889
2274.20  35.005  23.889
2274.70  35.005  23.920
2275.20  35.005  23.920
2275.70  35.005  23.920
2276.20  35.005  23.951
2276.70  34.892  23.889
2277.20  35.005  23.920
2277.70  35.005  23.920
2278.20  35.005  23.920
2278.70  35.005  23.920
2279.20  35.005  23.889
2279.70  35.005  23.920
2280.20  35.005  23.920
2280.70  35.005  23.920
2281.20  35.005  23.889
2281.70  35.005  23.889
2282.20  34.892  23.920
2282.70  35.005  23.889
2283.20  35.005  23.920
2283.70  35.005  23.951
2284.20  35.005  23.889
2284.70  34.892  23.889
2285.20  35.005  23.920
2285.70  35.005  23.920
2286.20  35.069  23.920
2286.70  35.005  23.920
2287.20  34.892  23.889
2287.70  35.005  23.920
2288.20  34.892  23.920
2288.70  35.069  23.951
2289.20  35.005  23.920
2289.70  35.069  23.889
2290.20  35.069  23.920
2290.70  35.005  23.920
2291.20  35.069  23.889
2291.70  35.005  23.920
2292.20  34.892  23.920
2292.70  35.069  23.982
2293.20  35.005  23.920
2293.70  35.005  23.889
2294.20  35.069  23.920
2294.70  35.005  23.920
2295.20  35.005  23.920
2295.70  34.776  23.920
2296.20  35.005  23.889
2296.70  35.005  23.889
2297.20  35.005  23.951
2297.70  35.005  23.951
2298.20  35.005  23.889
2298.70  34.892  23.982
2299.20  35.005  23.920
2299.70  35.069  23.951
2300.20  35.005  23.920
2300.70  35.005  23.920
2301.20  35.005  23.920
2301.70  35.133  23.889
2302.20  35.005  23.920
2302.70  35.005  23.951
2303.20  35.133  23.951
2303.70  35.005  23.920
2304.20  35.005  23.920
2304.70  35.005  23.951
2305.20  34.892  23.920
2305.70  35.069  23.920
2306.20  35.069  23.920
2306.70  35.005  23.920
2307.20  35.005  23.889
2307.70  34.892  23.920
2308.20  35.069  23.889
2308.70  35.069  23.920
2309.20  34.892  23.951
2309.70  34.776  23.889
2310.20  35.005  23.889
2310.70  35.005  23.920
2311.20  35.133  23.889
2311.70  35.069  23.920
2312.20  34.892  23.920
2312.70  35.069  23.889
2313.20  34.892  24.043
2313.70  35.005  23.920
2314.20  35.069  23.920
2314.70  35.069  23.889
2315.20  35.069  23.889
2315.70  34.892  23.920
2316.20  35.069  23.920
2316.70  35.005  23.920
2317.20  35.069  23.920
2317.70  35.005  23.889
2318.20  35.069  23.920
2318.70  35.005  23.920
2319.20  35.005  23.920
2319.70  35.069  23.920
2320.20  35.005  23.920
2320.70  35.069  23.920
2321.20  35.069  23.920
2321.71  35.069  23.920
2322.21  35.069  23.920
2322.71  35.005  23.920
2323.21  35.069  23.951
2323.71  35.005  23.889
2324.21  35.005  23.951
2324.71  35.069  23.920
2325.21  35.197  23.920
2325.71  35.069  23.920
2326.21  34.892  23.920
2326.71  35.069  23.920
2327.21  35.069  23.920
2327.71  34.892  23.920
2328.21  35.005  23.920
2328.71  35.005  23.889
2329.21  35.005  23.889
2329.71  35.005  23.920
2330.21  35.069  23.951
2330.71  35.005  23.920
2331.21  35.005  23.920
2331.71  35.069  23.920
2332.21  34.892  23.951
2332.71  35.069  23.951
2333.21  35.005  23.920
2333.71  35.069  23.889
2334.21  35.005  23.951
2334.71  35.005  23.920
2335.21  35.005  23.920
2335.71  35.005  23.920
2336.21  35.005  23.920
2336.71  34.892  23.859
2337.21  35.005  23.920
2337.71  35.069  23.920
2338.21  35.069  23.920
2338.71  35.069  23.951
2339.21  35.005  23.920
2339.71  35.005  23.920
2340.21  35.069  23.951
2340.71  35.069  23.920
2341.21  35.005  23.951
2341.71  35.005  23.920
2342.21  35.069  23.920
2342.71  35.005  23.920
2343.21  34.892  23.951
2343.71  35.069  23.889
2344.21  35.069  23.889
2344.71  35.133  23.982
2345.21  35.005  23.920
2345.71  35.069  23.920
2346.21  35.069  23.920
2346.71  35.005  23.920
2347.21  35.069  23.920
2347.71  35.005  23.920
2348.21  35.005  23.920
2348.71  35.133  23.951
2349.21  35.005  23.982
2349.71  35.005  23.951
2350.21  35.133  23.920
2350.71  35.133  23.920
2351.21  35.005  23.951
2351.71  35.069  23.920
2352.21  35.069  23.951
2352.71  35.069  23.920
2353.21  35.005  23.859
2353.71  35.133  23.920
2354.21  35.005  23.982
2354.71  35.133  23.859
2355.21  35.069  23.920
2355.71  35.069  23.951
2356.21  35.069  23.920
2356.71  35.133  23.920
2357.21  35.069  23.920
2357.71  35.005  23.920
2358.21  35.069  23.920
2358.71  35.069  23.951
2359.21  35.069  23.982
2359.71  35.069  23.920
2360.21  35.069  23.920
2360.71  35.069  23.951
2361.21  35.005  23.920
2361.71  35.005  23.920
2362.21  34.892  23.951
2362.71  35.069  23.920
2363.21  35.005  23.951
2363.71  35.005  23.920
2364.21  35.069  23.920
2364.71  35.133  23.951
2365.21  35.069  23.920
2365.71  35.005  23.920
2366.21  35.133  23.920
2366.71  35.069  23.920
2367.21  35.069  23.951
2367.71  35.069  23.920
2368.21  35.133  23.920
2368.71  35.069  23.951
2369.21  34.892  23.951
2369.71  35.133  23.920
2370.21  35.133  23.920
2370.71  35.069  23.920
2371.21  34.892  23.920
2371.71  35.133  23.920
2372.21  35.069  23.982
2372.71  35.005  23.951
2373.21  35.133  23.951
2373.71  35.005  23.920
2374.21  35.005  23.920
2374.71  35.069  23.951
2375.21  35.133  23.920
2375.71  35.069  23.889
2376.21  35.069  23.889
2376.71  35.005  23.920
2377.21  35.069  23.920
2377.71  35.069  23.920
2378.21  35.133  23.951
2378.71  35.005  23.920
2379.21  35.069  23.951
2379.71  35.069  23.951
2380.21  35.133  23.920
2380.71  35.069  23.951
2381.21  35.069  23.951
2381.71  35.069  23.920
2382.21  35.197  23.920
2382.71  35.133  23.889
2383.21  35.069  23.889
2383.71  35.005  23.951
2384.21  35.069  23.951
2384.71  35.069  23.951
2385.21  35.133  23.920
2385.71  35.133  23.951
2386.21  35.069  23.920
2386.71  35.069  23.920
2387.21  35.133  23.951
2387.71  35.069  23.951
2388.21  35.005  23.951
2388.71  35.005  23.951
2389.21  35.069  23.920
2389.71  35.133  23.920
2390.21  35.133  23.920
2390.71  35.133  23.920
2391.21  35.069  23.951
2391.71  35.069  23.951
2392.21  35.069  23.982
2392.71  35.133  23.951
2393.21  35.133  23.920
2393.71  35.133  23.951
2394.21  35.069  23.951
2394.71  35.005  23.951
2395.21  35.069  23.920
2395.71  35.069  23.951
2396.21  35.069  23.951
2396.71  35.069  23.920
2397.21  35.069  23.920
2397.71  35.197  23.951
2398.21  35.133  23.951
2398.71  35.197  23.951
2399.21  35.133  23.951
2399.71  35.133  23.951
2400.21  35.133  23.951
2400.71  35.133  23.951
2401.21  35.069  23.920
2401.71  35.133  24.013
2402.21  35.069  23.920
2402.71  35.069  23.920
2403.21  35.133  23.982
2403.71  35.133  23.920
2404.21  35.197  23.951
2404.71  35.069  23.951
2405.21  35.005  23.920
2405.71  35.133  23.951
2406.21  35.069  23.951
2406.71  35.133  23.951
2407.21  35.069  23.920
2407.71  35.133  23.982
2408.21  35.197  23.951
2408.71  34.892  23.951
2409.21  35.069  23.920
2409.71  35.069  23.951
2410.21  35.133  23.920
2410.71  35.005  23.982
2411.21  35.069  23.982
2411.71  35.133  23.889
2412.21  35.197  23.920
2412.71  35.069  23.920
2413.21  35.133  23.920
2413.71  35.069  23.951
2414.21  35.133  23.920
2414.71  35.069  23.889
2415.21  35.133  23.951
2415.71  35.133  23.982
2416.21  35.133  23.920
2416.71  35.133  23.951
2417.21  35.133  23.920
2417.71  35.069  23.920
2418.21  35.069  23.920
2418.71  35.133  23.951
2419.21  35.069  23.920
2419.71  35.197  23.951
2420.21  35.133  23.889
2420.71  35.133  23.920
2421.21  35.069  23.920
2421.71  35.005  23.982
2422.21  35.005  23.920
2422.71  35.069  23.920
2423.21  35.133  23.951
2423.72  35.133  23.920
2424.22  35.069  23.951
2424.72  35.133  23.951
2425.22  35.005  23.951
2425.72  35.133  23.951
2426.22  35.133  23.982
2426.72  35.069  23.920
2427.22  35.069  23.982
2427.72  35.133  23.920
2428.22  35.133  23.920
2428.72  35.069  23.920
2429.22  35.069  23.951
2429.72  35.069  23.982
2430.22  35.133  23.920
2430.72  35.005  23.951
2431.22  35.197  23.920
2431.72  35.069  23.920
2432.22  35.069  23.920
2432.72  35.069  23.889
2433.22  35.133  23.920
2433.72  35.069  23.951
2434.22  35.069  23.951
2434.72  35.069  23.920
2435.22  35.133  23.951
2435.72  35.069  23.920
2436.22  35.133  23.982
2436.72  35.133  23.982
2437.22  35.197  23.951
2437.72  35.069  23.951
2438.22  35.069  23.951
2438.72  35.069  23.951
2439.22  35.069  23.920
2439.72  35.069  23.951
2440.22  35.133  23.920
2440.72  35.069  23.982
2441.22  35.133  23.982
2441.72  35.133  23.889
2442.22  35.197  23.889
2442.72  35.133  23.951
2443.22  35.133  23.951
2443.72  35.133  23.982
2444.22  35.133  23.920
2444.72  35.197  23.951
2445.22  35.133  23.951
2445.72  35.069  23.951
2446.22  35.133  23.951
2446.72  35.133  23.951
2447.22  35.197  24.013
2447.72  35.133  23.951
2448.22  35.133  23.982
2448.72  35.197  23.982
2449.22  35.133  23.951
2449.72  35.069  23.951
2450.22  35.133  23.982
2450.72  35.133  23.920
2451.22  35.133  23.951
2451.72  35.069  23.920
2452.22  35.133  23.982
2452.72  35.069  23.920
2453.22  35.133  23.951
2453.72  35.133  23.951
2454.22  35.197  23.920
2454.72  35.133  23.951
2455.22  35.133  23.951
2455.72  35.133  23.951
2456.22  35.133  23.982
2456.72  35.133  23.951
2457.22  35.133  23.951
2457.72  35.133  23.951
2458.22  35.133  23.951
2458.72  35.133  23.920
2459.22  35.133  23.951
2459.72  35.069  23.951
2460.22  35.133  23.951
2460.72  35.133  23.951
2461.22  35.133  23.951
2461.72  35.133  23.951
2462.22  35.261  23.951
2462.72  35.133  23.920
2463.22  35.133  23.951
2463.72  35.133  23.951
2464.22  35.133  23.920
2464.72  35.197  23.951
2465.22  35.133  23.951
2465.72  35.133  23.982
2466.22  35.197  23.951
2466.72  35.133  23.951
2467.22  35.133  23.920
2467.72  35.133  23.889
2468.22  35.133  23.951
2468.72  35.197  23.951
2469.22  35.133  23.951
2469.72  35.133  23.920
2470.22  35.069  23.982
2470.72  35.069  23.951
2471.22  34.892  23.951
2471.72  35.069  23.920
2472.22  35.133  23.920
2472.72  35.005  23.982
2473.22  35.133  23.920
2473.72  35.133  23.920
2474.22  35.197  23.982
2474.72  35.197  23.982
2475.22  35.133  23.982
2475.72  35.069  23.951
2476.22  35.133  23.920
2476.72  35.133  23.982
2477.22  35.133  23.951
2477.72  35.133  23.920
2478.22  35.069  23.951
2478.72  35.069  23.920
2479.22  35.133  23.951
2479.72  35.069  23.951
2480.22  35.197  23.982
2480.72  35.069  23.951
2481.22  35.197  23.951
2481.72  35.197  23.951
2482.22  35.133  23.951
2482.72  35.133  23.920
2483.22  35.133  23.920
2483.72  35.261  23.920
2484.22  35.133  23.951
2484.72  35.197  23.982
2485.22  35.133  23.920
2485.72  35.133  23.951
2486.22  35.133  23.920
2486.72  35.133  23.951
2487.22  35.133  23.951
2487.72  35.133  23.920
2488.22  35.069  23.920
2488.72  35.197  23.951
2489.22  35.133  23.951
2489.72  35.133  23.920
2490.22  35.133  23.920
2490.72  35.197  23.951
2491.22  35.133  23.951
2491.72  35.133  23.951
2492.22  35.133  23.951
2492.72  35.133  23.951
2493.22  35.069  23.920
2493.72  35.133  23.982
2494.22  35.133  23.951
2494.72  35.133  23.951
2495.22  35.389  23.951
2495.72  35.069  23.951
2496.22  35.133  23.951
2496.72  35.197  23.951
2497.22  35.133  23.951
2497.72  35.069  23.951
2498.22  35.261  23.920
2498.72  35.069  23.951
2499.22  35.133  23.982
2499.72  35.133  23.982
2500.22  35.133  23.982
2500.72  35.133  23.951
2501.22  35.069  23.920
2501.72  35.133  23.951
