   1.40  23.382  23.304
   1.90  23.408  23.304
   2.40  23.382  23.335
   2.90  23.382  23.335
   3.40  23.382  23.273
   3.90  23.382  23.304
   4.40  23.382  23.335
   4.90  23.408  23.335
   5.40  23.382  23.273
   5.90  23.382  23.304
   6.40  23.382  23.304
   6.90  23.382  23.273
   7.40  23.382  23.304
   7.90  23.356  23.273
   8.40  23.382  23.304
   8.90  23.382  23.304
   9.40  23.382  23.335
   9.90  23.382  23.335
  10.40  23.356  23.335
  10.90  23.382  23.304
  11.40  23.382  23.304
  11.90  23.382  23.304
  12.40  23.382  23.366
  12.90  23.382  23.304
  13.40  23.382  23.304
  13.90  23.382  23.304
  14.40  23.408  23.304
  14.90  23.408  23.304
  15.40  23.461  23.304
  15.90  23.461  23.335
  16.40  23.487  23.304
  16.90  23.513  23.304
  17.40  23.565  23.304
  17.90  23.617  23.304
  18.40  23.591  23.304
  18.90  23.591  23.304
  19.40  23.617  23.304
  19.90  23.670  23.335
  20.40  23.643  23.273
  20.90  23.696  23.304
  21.40  23.696  23.304
  21.90  23.696  23.304
  22.40  23.722  23.335
  22.90  23.748  23.304
  23.40  23.826  23.273
  23.90  23.800  23.335
  24.40  23.852  23.335
  24.90  23.826  23.335
  25.40  23.852  23.273
  25.90  23.878  23.335
  26.40  23.878  23.335
  26.90  23.931  23.335
  27.40  23.931  23.304
  27.90  23.931  23.335
  28.40  23.931  23.304
  28.90  23.957  23.335
  29.40  23.983  23.335
  29.90  24.009  23.304
  30.40  24.035  23.304
  30.90  24.061  23.304
  31.40  24.009  23.335
  31.90  24.035  23.335
  32.40  24.087  23.335
  32.90  24.061  23.304
  33.40  24.140  23.304
  33.90  24.140  23.304
  34.40  24.113  23.335
  34.90  24.140  23.335
  35.40  24.166  23.304
  35.90  24.192  23.304
  36.40  24.166  23.304
  36.90  24.166  23.304
  37.40  24.218  23.335
  37.90  24.192  23.304
  38.40  24.244  23.273
  38.90  24.244  23.304
  39.40  24.270  23.335
  39.90  24.244  23.304
  40.40  24.270  23.304
  40.90  24.296  23.304
  41.40  24.270  23.335
  41.90  24.296  23.335
  42.40  24.322  23.304
  42.90  24.348  23.304
  43.40  24.348  23.304
  43.90  24.375  23.335
  44.40  24.375  23.335
  44.90  24.375  23.304
  45.40  24.375  23.335
  45.90  24.401  23.304
  46.40  24.375  23.335
  46.90  24.401  23.304
  47.40  24.427  23.304
  47.90  24.453  23.335
  48.40  24.479  23.304
  48.90  24.479  23.335
  49.40  24.453  23.304
  49.90  24.479  23.304
  50.40  24.479  23.335
  50.90  24.505  23.304
  51.40  24.479  23.335
  51.90  24.505  23.304
  52.40  24.505  23.335
  52.90  24.505  23.335
  53.40  24.531  23.335
  53.90  24.531  23.304
  54.40  24.557  23.335
  54.90  24.583  23.335
  55.40  24.557  23.304
  55.90  24.557  23.304
  56.40  24.583  23.335
  56.90  24.583  23.273
  57.40  24.583  23.335
  57.90  24.610  23.304
  58.41  24.636  23.335
  58.91  24.610  23.304
  59.41  24.610  23.273
  59.91  24.636  23.366
  60.41  24.662  23.366
  60.91  24.688  23.304
  61.41  24.662  23.335
  61.91  24.688  23.304
  62.41  24.688  23.304
  62.91  24.688  23.335
  63.41  24.662  23.335
  63.91  24.714  23.304
  64.41  24.714  23.335
  64.91  24.714  23.304
  65.41  24.714  23.304
  65.91  24.714  23.304
  66.41  24.688  23.335
  66.91  24.740  23.335
  67.41  24.766  23.273
  67.91  24.766  23.304
  68.41  24.766  23.304
  68.91  24.766  23.335
  69.41  24.792  23.304
  69.91  24.740  23.304
  70.41  24.792  23.304
  70.91  24.766  23.304
  71.41  24.792  23.335
  71.91  24.819  23.335
  72.41  24.819  23.335
  72.91  24.819  23.273
  73.41  24.819  23.304
  73.91  24.819  23.304
  74.41  24.845  23.304
  74.91  24.845  23.335
  75.41  24.871  23.304
  75.91  24.897  23.304
  76.41  24.871  23.335
  76.91  24.923  23.242
  77.41  24.897  23.335
  77.91  24.923  23.335
  78.41  24.897  23.242
  78.91  24.871  23.304
  79.41  24.923  23.304
  79.91  24.949  23.304
  80.41  24.897  23.304
  80.91  24.923  23.335
  81.41  24.949  23.335
  81.91  24.949  23.304
  82.41  25.005  23.335
  82.91  24.949  23.304
  83.41  24.949  23.335
  83.91  24.949  23.304
  84.41  25.005  23.304
  84.91  25.005  23.396
  85.41  25.005  23.335
  85.91  25.005  23.304
  86.41  25.005  23.304
  86.91  25.114  23.304
  87.41  25.114  23.304
  87.91  25.114  23.304
  88.41  25.222  23.335
  88.91  25.114  23.335
  89.41  25.222  23.304
  89.91  25.114  23.304
  90.41  25.330  23.304
  90.91  25.222  23.366
  91.41  25.330  23.335
  91.91  25.330  23.304
  92.41  25.330  23.304
  92.91  25.114  23.304
  93.41  25.438  23.335
  93.91  25.330  23.335
  94.41  25.330  23.304
  94.91  25.330  23.304
  95.41  25.438  23.335
  95.91  25.438  23.366
  96.41  25.547  23.304
  96.91  25.763  23.335
  97.41  25.438  23.304
  97.91  25.547  23.273
  98.41  25.655  23.304
  98.91  25.547  23.304
  99.41  25.655  23.304
  99.91  25.763  23.335
 100.41  25.763  23.335
 100.91  25.763  23.304
 101.41  25.763  23.335
 101.91  25.763  23.304
 102.41  25.871  23.335
 102.91  25.980  23.335
 103.41  25.763  23.335
 103.91  25.980  23.304
 104.41  25.871  23.366
 104.91  26.196  23.335
 105.41  25.871  23.304
 105.91  25.980  23.335
 106.41  25.980  23.304
 106.91  25.980  23.304
 107.41  26.088  23.335
 107.91  26.088  23.304
 108.41  26.088  23.304
 108.91  26.088  23.335
 109.41  25.980  23.335
 109.91  26.088  23.304
 110.41  26.196  23.304
 110.91  26.196  23.335
 111.41  26.196  23.304
 111.91  26.196  23.304
 112.41  26.304  23.273
 112.91  26.196  23.304
 113.41  26.304  23.335
 113.91  26.304  23.273
 114.41  26.304  23.335
 114.91  26.304  23.335
 115.41  26.304  23.335
 115.91  26.196  23.335
 116.41  26.413  23.335
 116.91  26.413  23.335
 117.41  26.413  23.335
 117.91  26.413  23.335
 118.41  26.413  23.273
 118.91  26.521  23.366
 119.41  26.521  23.304
 119.91  26.629  23.304
 120.41  26.521  23.335
 120.91  26.737  23.304
 121.41  26.737  23.335
 121.91  26.629  23.335
 122.41  26.521  23.304
 122.91  26.846  23.304
 123.41  26.629  23.335
 123.91  26.629  23.304
 124.41  26.629  23.335
 124.91  26.737  23.335
 125.41  26.846  23.304
 125.91  26.737  23.335
 126.41  26.846  23.335
 126.91  26.954  23.304
 127.41  26.846  23.304
 127.91  26.846  23.304
 128.41  26.846  23.304
 128.91  26.846  23.304
 129.41  26.846  23.335
 129.91  26.954  23.335
 130.41  26.954  23.304
 130.91  26.954  23.335
 131.41  27.062  23.335
 131.91  27.062  23.335
 132.41  27.062  23.335
 132.91  26.954  23.335
 133.41  26.954  23.304
 133.91  26.954  23.366
 134.41  27.279  23.304
 134.91  27.279  23.304
 135.41  27.062  23.304
 135.91  27.279  23.304
 136.41  26.954  23.304
 136.91  27.279  23.335
 137.41  27.279  23.304
 137.91  27.279  23.335
 138.41  27.279  23.366
 138.91  27.387  23.335
 139.41  27.279  23.304
 139.91  27.279  23.366
 140.41  27.387  23.304
 140.91  27.495  23.304
 141.41  27.495  23.335
 141.91  27.387  23.335
 142.41  27.495  23.335
 142.91  27.279  23.366
 143.41  27.712  23.335
 143.91  27.495  23.335
 144.41  27.495  23.304
 144.91  27.387  23.335
 145.41  27.603  23.335
 145.91  27.603  23.335
 146.41  27.712  23.335
 146.91  27.495  23.304
 147.41  27.603  23.304
 147.91  27.603  23.335
 148.41  27.603  23.304
 148.91  27.603  23.304
 149.41  27.712  23.366
 149.91  27.712  23.335
 150.41  27.928  23.335
 150.91  27.603  23.304
 151.41  27.712  23.335
 151.91  27.820  23.335
 152.41  27.820  23.304
 152.91  27.820  23.366
 153.41  27.928  23.335
 153.91  27.820  23.335
 154.41  28.036  23.304
 154.91  28.036  23.304
 155.41  27.712  23.335
 155.91  27.820  23.335
 156.41  27.820  23.273
 156.91  27.820  23.335
 157.41  27.928  23.335
 157.91  27.928  23.335
 158.41  28.036  23.335
 158.91  28.036  23.335
 159.41  27.928  23.335
 159.91  28.036  23.335
 160.41  28.036  23.335
 160.91  28.036  23.335
 161.41  28.253  23.304
 161.91  28.145  23.335
 162.41  28.145  23.366
 162.91  28.145  23.366
 163.41  28.145  23.335
 163.91  28.253  23.366
 164.41  28.253  23.304
 164.91  28.253  23.366
 165.41  28.253  23.335
 165.91  28.145  23.335
 166.41  28.469  23.304
 166.91  28.361  23.335
 167.41  28.253  23.366
 167.91  28.253  23.335
 168.41  28.361  23.335
 168.91  28.469  23.366
 169.41  28.469  23.335
 169.91  28.361  23.335
 170.41  28.361  23.335
 170.91  28.361  23.335
 171.41  28.469  23.335
 171.91  28.469  23.335
 172.41  28.469  23.304
 172.91  28.469  23.335
 173.41  28.578  23.335
 173.91  28.361  23.335
 174.41  28.578  23.335
 174.91  28.578  23.335
 175.41  28.578  23.335
 175.91  28.578  23.304
 176.41  28.578  23.335
 176.91  28.578  23.335
 177.41  28.686  23.335
 177.91  28.686  23.335
 178.41  28.686  23.335
 178.91  28.902  23.366
 179.41  28.686  23.304
 179.91  28.902  23.335
 180.41  28.902  23.335
 180.91  28.686  23.335
 181.41  28.794  23.366
 181.91  28.794  23.335
 182.42  28.794  23.304
 182.92  28.686  23.366
 183.42  28.902  23.335
 183.92  28.794  23.335
 184.42  28.902  23.396
 184.92  28.902  23.304
 185.42  28.902  23.335
 185.92  28.902  23.304
 186.42  29.119  23.335
 186.92  28.902  23.366
 187.42  29.011  23.335
 187.92  29.011  23.304
 188.42  28.902  23.304
 188.92  29.011  23.335
 189.42  29.011  23.304
 189.92  29.011  23.304
 190.42  29.011  23.366
 190.92  29.011  23.335
 191.42  29.011  23.366
 191.92  29.227  23.304
 192.42  29.119  23.335
 192.92  29.011  23.335
 193.42  29.119  23.335
 193.92  29.227  23.335
 194.42  29.227  23.335
 194.92  28.902  23.304
 195.42  29.011  23.335
 195.92  29.335  23.335
 196.42  29.227  23.335
 196.92  29.227  23.273
 197.42  29.335  23.304
 197.92  29.444  23.366
 198.42  29.335  23.335
 198.92  29.335  23.335
 199.42  29.335  23.366
 199.92  29.335  23.335
 200.42  29.335  23.366
 200.92  29.444  23.335
 201.42  29.444  23.335
 201.92  29.335  23.335
 202.42  29.444  23.273
 202.92  29.444  23.335
 203.42  29.552  23.366
 203.92  29.444  23.304
 204.42  29.444  23.304
 204.92  29.552  23.335
 205.42  29.444  23.304
 205.92  29.552  23.335
 206.42  29.552  23.335
 206.92  29.660  23.335
 207.42  29.552  23.335
 207.92  29.660  23.335
 208.42  29.444  23.304
 208.92  29.660  23.304
 209.42  29.552  23.335
 209.92  29.552  23.335
 210.42  29.660  23.335
 210.92  29.768  23.335
 211.42  29.660  23.366
 211.92  29.660  23.335
 212.42  29.768  23.335
 212.92  29.552  23.335
 213.42  29.877  23.366
 213.92  29.660  23.335
 214.42  29.768  23.366
 214.92  29.768  23.335
 215.42  29.768  23.366
 215.92  29.768  23.335
 216.42  29.768  23.366
 216.92  29.768  23.304
 217.42  29.768  23.335
 217.92  29.768  23.304
 218.42  29.877  23.366
 218.92  29.768  23.335
 219.42  29.877  23.304
 219.92  29.877  23.335
 220.42  29.877  23.335
 220.92  29.985  23.304
 221.42  29.877  23.396
 221.92  29.877  23.366
 222.42  30.334  23.304
 222.92  29.985  23.304
 223.42  29.985  23.335
 223.92  29.985  23.335
 224.42  29.985  23.335
 224.92  29.985  23.335
 225.42  29.985  23.304
 225.92  30.101  23.335
 226.42  30.101  23.366
 226.92  30.101  23.335
 227.42  30.217  23.335
 227.92  30.217  23.335
 228.42  30.101  23.335
 228.92  30.334  23.335
 229.42  30.217  23.304
 229.92  30.217  23.335
 230.42  30.217  23.335
 230.92  30.334  23.335
 231.42  30.217  23.335
 231.92  30.217  23.366
 232.42  30.334  23.335
 232.92  30.334  23.335
 233.42  30.334  23.304
 233.92  30.334  23.335
 234.42  30.334  23.335
 234.92  30.217  23.366
 235.42  30.568  23.366
 235.92  30.451  23.366
 236.42  30.451  23.304
 236.92  30.217  23.304
 237.42  30.217  23.335
 237.92  30.334  23.335
 238.42  30.451  23.335
 238.92  30.451  23.304
 239.42  30.334  23.304
 239.92  30.568  23.304
 240.42  30.568  23.335
 240.92  30.451  23.366
 241.42  30.568  23.335
 241.92  30.451  23.335
 242.42  30.568  23.304
 242.92  30.451  23.335
 243.42  30.451  23.366
 243.92  30.451  23.335
 244.42  30.685  23.304
 244.92  30.568  23.335
 245.42  30.568  23.335
 245.92  30.685  23.335
 246.42  30.568  23.366
 246.92  30.685  23.366
 247.42  30.568  23.335
 247.92  30.568  23.335
 248.42  30.685  23.335
 248.92  30.685  23.335
 249.42  30.568  23.366
 249.92  30.685  23.335
 250.42  30.802  23.335
 250.92  30.802  23.304
 251.42  30.685  23.366
 251.92  30.802  23.335
 252.42  30.802  23.335
 252.92  30.802  23.335
 253.42  30.802  23.366
 253.92  30.802  23.335
 254.42  30.802  23.335
 254.92  30.802  23.304
 255.42  30.802  23.335
 255.92  30.802  23.366
 256.42  30.919  23.335
 256.92  30.802  23.335
 257.42  30.919  23.366
 257.92  30.919  23.396
 258.42  30.919  23.366
 258.92  30.919  23.335
 259.42  31.036  23.335
 259.92  31.036  23.335
 260.42  30.919  23.304
 260.92  31.036  23.335
 261.42  31.152  23.335
 261.92  30.919  23.335
 262.42  31.152  23.304
 262.92  30.919  23.335
 263.42  31.036  23.335
 263.92  31.152  23.366
 264.42  31.036  23.366
 264.92  31.152  23.335
 265.42  31.152  23.335
 265.92  31.269  23.335
 266.42  31.036  23.335
 266.92  31.152  23.335
 267.42  31.269  23.335
 267.92  31.152  23.396
 268.42  31.269  23.366
 268.92  31.036  23.366
 269.42  31.269  23.335
 269.92  31.269  23.366
 270.42  31.152  23.366
 270.92  31.269  23.366
 271.42  31.269  23.335
 271.92  31.269  23.335
 272.42  31.269  23.335
 272.92  31.269  23.366
 273.42  31.269  23.366
 273.92  31.386  23.335
 274.42  31.386  23.366
 274.92  31.386  23.335
 275.42  31.386  23.335
 275.92  31.386  23.366
 276.42  31.503  23.335
 276.92  31.386  23.366
 277.42  31.386  23.335
 277.92  31.386  23.396
 278.42  31.386  23.366
 278.92  31.386  23.366
 279.42  31.386  23.335
 279.92  31.503  23.396
 280.42  31.503  23.366
 280.92  31.503  23.366
 281.42  31.503  23.335
 281.92  31.503  23.366
 282.42  31.737  23.335
 282.92  31.503  23.366
 283.42  31.620  23.427
 283.92  31.620  23.335
 284.42  31.620  23.366
 284.93  31.737  23.335
 285.43  31.620  23.366
 285.93  31.503  23.335
 286.43  31.620  23.335
 286.93  31.620  23.366
 287.43  31.620  23.366
 287.93  32.087  23.366
 288.43  31.620  23.396
 288.93  31.620  23.366
 289.43  31.620  23.335
 289.93  31.737  23.304
 290.43  31.737  23.335
 290.93  31.620  23.304
 291.43  31.737  23.335
 291.93  31.620  23.335
 292.43  31.737  23.366
 292.93  31.737  23.366
 293.43  31.620  23.366
 293.93  31.854  23.335
 294.43  31.737  23.366
 294.93  31.737  23.366
 295.43  31.854  23.335
 295.93  31.737  23.366
 296.43  31.854  23.335
 296.93  31.854  23.366
 297.43  31.854  23.335
 297.93  31.854  23.335
 298.43  32.204  23.335
 298.93  32.087  23.366
 299.43  31.971  23.335
 299.93  32.087  23.366
 300.43  32.087  23.366
 300.93  31.971  23.335
 301.43  32.087  23.304
 301.93  31.971  23.366
 302.43  32.087  23.366
 302.93  31.971  23.396
 303.43  31.971  23.335
 303.93  31.971  23.366
 304.43  31.971  23.366
 304.93  32.087  23.335
 305.43  32.087  23.366
 305.93  32.087  23.366
 306.43  32.087  23.335
 306.93  32.204  23.335
 307.43  32.087  23.396
 307.93  32.087  23.366
 308.43  32.087  23.366
 308.93  32.204  23.366
 309.43  32.204  23.335
 309.93  32.087  23.335
 310.43  32.204  23.304
 310.93  32.087  23.335
 311.43  32.204  23.335
 311.93  32.204  23.366
 312.43  32.204  23.366
 312.93  32.204  23.335
 313.43  32.321  23.335
 313.93  32.204  23.366
 314.43  32.204  23.335
 314.93  32.321  23.366
 315.43  32.321  23.366
 315.93  32.204  23.335
 316.43  32.438  23.366
 316.93  32.321  23.335
 317.43  32.321  23.366
 317.93  32.321  23.335
 318.43  32.204  23.304
 318.93  32.438  23.366
 319.43  32.321  23.366
 319.93  32.321  23.366
 320.43  32.321  23.366
 320.93  32.321  23.366
 321.43  32.906  23.366
 321.93  32.438  23.366
 322.43  32.438  23.366
 322.93  32.438  23.366
 323.43  32.438  23.366
 323.93  32.438  23.335
 324.43  32.438  23.396
 324.93  32.555  23.335
 325.43  32.321  23.366
 325.93  32.438  23.427
 326.43  32.555  23.366
 326.93  32.438  23.366
 327.43  32.672  23.335
 327.93  32.438  23.366
 328.43  32.555  23.335
 328.93  32.555  23.366
 329.43  32.672  23.396
 329.93  32.438  23.335
 330.43  32.555  23.396
 330.93  32.672  23.335
 331.43  32.555  23.366
 331.93  32.555  23.304
 332.43  32.672  23.335
 332.93  32.672  23.366
 333.43  32.555  23.335
 333.93  32.672  23.335
 334.43  32.672  23.366
 334.93  32.906  23.366
 335.43  32.672  23.335
 335.93  32.789  23.366
 336.43  32.672  23.335
 336.93  32.672  23.304
 337.43  32.672  23.366
 337.93  32.789  23.366
 338.43  32.789  23.366
 338.93  32.789  23.366
 339.43  32.789  23.366
 339.93  32.789  23.396
 340.43  32.789  23.366
 340.93  32.789  23.335
 341.43  32.789  23.335
 341.93  32.906  23.366
 342.43  32.906  23.366
 342.93  32.906  23.396
 343.43  32.906  23.366
 343.93  33.022  23.366
 344.43  32.789  23.335
 344.93  32.906  23.366
 345.43  32.906  23.335
 345.93  32.906  23.366
 346.43  32.906  23.396
 346.93  33.022  23.366
 347.43  32.906  23.396
 347.93  33.022  23.396
 348.43  33.139  23.366
 348.93  33.139  23.366
 349.43  33.022  23.396
 349.93  33.139  23.366
 350.43  33.139  23.366
 350.93  33.022  23.366
 351.43  33.139  23.366
 351.93  33.022  23.366
 352.43  33.022  23.335
 352.93  33.139  23.366
 353.43  33.139  23.366
 353.93  33.022  23.366
 354.43  33.139  23.335
 354.93  33.022  23.366
 355.43  33.139  23.366
 355.93  33.139  23.366
 356.43  33.022  23.366
 356.93  33.139  23.366
 357.43  33.139  23.366
 357.93  33.256  23.366
 358.43  33.256  23.366
 358.93  33.139  23.335
 359.43  33.256  23.366
 359.93  33.256  23.335
 360.43  33.139  23.366
 360.93  33.256  23.335
 361.43  33.373  23.366
 361.93  33.256  23.366
 362.43  33.022  23.366
 362.93  33.139  23.366
 363.43  33.139  23.366
 363.93  33.373  23.366
 364.43  33.256  23.366
 364.93  33.256  23.366
 365.43  33.256  23.396
 365.93  33.139  23.366
 366.43  33.256  23.366
 366.93  33.373  23.366
 367.43  33.256  23.396
 367.93  33.373  23.366
 368.43  33.373  23.366
 368.93  33.256  23.366
 369.43  33.373  23.366
 369.93  33.490  23.366
 370.43  33.373  23.396
 370.93  33.373  23.335
 371.43  33.490  23.366
 371.93  33.373  23.366
 372.43  33.256  23.427
 372.93  33.373  23.366
 373.43  33.373  23.335
 373.93  33.490  23.366
 374.43  33.373  23.366
 374.93  33.373  23.366
 375.43  33.373  23.366
 375.93  33.256  23.335
 376.43  33.373  23.396
 376.93  33.373  23.366
 377.43  33.373  23.396
 377.93  33.490  23.366
 378.43  33.490  23.396
 378.93  33.607  23.366
 379.43  33.724  23.396
 379.93  33.607  23.366
 380.43  33.490  23.366
 380.93  33.490  23.335
 381.43  33.607  23.396
 381.93  33.373  23.366
 382.43  33.607  23.396
 382.93  33.490  23.366
 383.43  33.607  23.366
 383.93  33.607  23.366
 384.43  33.607  23.335
 384.93  33.607  23.366
 385.43  33.607  23.366
 385.93  33.607  23.366
 386.43  33.607  23.366
 386.93  33.724  23.366
 387.43  33.841  23.366
 387.93  33.724  23.396
 388.43  33.841  23.335
 388.93  33.724  23.366
 389.43  33.724  23.366
 389.93  33.841  23.366
 390.43  33.724  23.366
 390.93  33.724  23.366
 391.43  33.724  23.396
 391.93  33.724  23.396
 392.43  33.724  23.366
 392.93  33.724  23.396
 393.43  33.841  23.396
 393.93  33.957  23.366
 394.43  33.841  23.366
 394.93  33.841  23.335
 395.43  33.841  23.366
 395.93  33.841  23.396
 396.43  33.841  23.366
 396.93  34.074  23.366
 397.43  33.724  23.396
 397.94  33.841  23.366
 398.44  33.841  23.366
 398.94  33.841  23.427
 399.44  33.841  23.396
 399.94  33.841  23.396
 400.44  34.074  23.366
 400.94  33.957  23.366
 401.44  33.841  23.366
 401.94  34.074  23.396
 402.44  33.957  23.366
 402.94  33.841  23.396
 403.44  34.191  23.396
 403.94  33.957  23.366
 404.44  33.957  23.396
 404.94  34.191  23.458
 405.44  34.074  23.366
 405.94  34.074  23.335
 406.44  34.074  23.427
 406.94  33.957  23.366
 407.44  34.074  23.366
 407.94  33.957  23.396
 408.44  34.074  23.366
 408.94  33.957  23.396
 409.44  33.957  23.366
 409.94  34.074  23.396
 410.44  34.191  23.396
 410.94  34.191  23.396
 411.44  34.074  23.366
 411.94  34.191  23.396
 412.44  34.191  23.396
 412.94  34.074  23.366
 413.44  34.074  23.366
 413.94  34.074  23.366
 414.44  34.191  23.396
 414.94  34.074  23.366
 415.44  34.191  23.396
 415.94  34.074  23.366
 416.44  34.425  23.396
 416.94  34.191  23.396
 417.44  34.191  23.335
 417.94  34.191  23.366
 418.44  34.191  23.396
 418.94  34.308  23.366
 419.44  34.074  23.396
 419.94  34.308  23.366
 420.44  34.191  23.427
 420.94  34.425  23.366
 421.44  34.191  23.366
 421.94  34.308  23.366
 422.44  34.308  23.396
 422.94  34.308  23.366
 423.44  34.425  23.366
 423.94  34.191  23.366
 424.44  34.308  23.396
 424.94  34.308  23.366
 425.44  34.308  23.396
 425.94  34.308  23.366
 426.44  34.191  23.366
 426.94  34.308  23.366
 427.44  34.191  23.273
 427.94  34.308  23.366
 428.44  34.542  23.366
 428.94  34.542  23.396
 429.44  34.308  23.366
 429.94  34.425  23.427
 430.44  34.308  23.366
 430.94  34.542  23.335
 431.44  34.425  23.366
 431.94  34.425  23.427
 432.44  34.425  23.366
 432.94  34.425  23.335
 433.44  34.425  23.396
 433.94  34.542  23.366
 434.44  34.425  23.366
 434.94  34.425  23.396
 435.44  34.425  23.396
 435.94  34.542  23.396
 436.44  34.425  23.335
 436.94  34.425  23.396
 437.44  34.542  23.396
 437.94  34.542  23.396
 438.44  34.425  23.396
 438.94  34.542  23.366
 439.44  34.542  23.396
 439.94  34.542  23.396
 440.44  34.542  23.396
 440.94  34.542  23.366
 441.44  34.659  23.396
 441.94  34.659  23.396
 442.44  34.542  23.396
 442.94  34.776  23.396
 443.44  34.542  23.396
 443.94  34.659  23.396
 444.44  34.776  23.335
 444.94  34.659  23.396
 445.44  34.659  23.396
 445.94  34.542  23.396
 446.44  34.659  23.396
 446.94  34.659  23.366
 447.44  34.659  23.396
 447.94  34.659  23.396
 448.44  34.776  23.396
 448.94  34.659  23.396
 449.44  34.659  23.427
 449.94  34.659  23.396
 450.44  34.892  23.396
 450.94  34.542  23.396
 451.44  34.659  23.396
 451.94  34.659  23.396
 452.44  34.776  23.396
 452.94  34.659  23.427
 453.44  34.776  23.396
 453.94  34.892  23.396
 454.44  34.659  23.396
 454.94  34.776  23.396
 455.44  34.659  23.396
 455.94  34.776  23.427
 456.44  34.776  23.396
 456.94  34.892  23.396
 457.44  34.892  23.366
 457.94  34.776  23.366
 458.44  34.776  23.396
 458.94  34.776  23.396
 459.44  34.892  23.396
 459.94  34.776  23.396
 460.44  34.892  23.396
 460.94  35.005  23.366
 461.44  34.776  23.396
 461.94  34.892  23.396
 462.44  34.892  23.396
 462.94  34.892  23.366
 463.44  34.892  23.366
 463.94  35.005  23.396
 464.44  34.659  23.366
 464.94  35.005  23.427
 465.44  35.005  23.366
 465.94  34.892  23.396
 466.44  35.005  23.427
 466.94  35.005  23.335
 467.44  35.005  23.396
 467.94  34.892  23.396
 468.44  35.005  23.366
 468.94  34.892  23.396
 469.44  34.892  23.396
 469.94  35.005  23.396
 470.44  34.892  23.396
 470.94  35.005  23.396
 471.44  34.892  23.396
 471.94  35.069  23.396
 472.44  34.892  23.427
 472.94  35.069  23.396
 473.44  34.892  23.396
 473.94  35.005  23.396
 474.44  35.005  23.396
 474.94  35.005  23.396
 475.44  35.005  23.366
 475.94  35.005  23.396
 476.44  35.005  23.366
 476.94  35.069  23.396
 477.44  35.005  23.396
 477.94  35.005  23.396
 478.44  35.005  23.396
 478.94  35.133  23.396
 479.44  35.069  23.396
 479.94  35.133  23.396
 480.44  35.261  23.396
 480.94  35.133  23.396
 481.44  35.069  23.396
 481.94  35.069  23.396
 482.44  35.133  23.427
 482.94  35.133  23.427
 483.44  35.069  23.427
 483.94  35.197  23.396
 484.44  35.133  23.396
 484.94  35.261  23.396
 485.44  35.133  23.396
 485.94  35.069  23.396
 486.44  35.133  23.427
 486.94  35.133  23.396
 487.44  35.197  23.396
 487.94  35.133  23.396
 488.44  35.133  23.396
 488.94  35.197  23.396
 489.44  35.069  23.396
 489.94  35.133  23.366
 490.44  35.197  23.396
 490.94  35.133  23.396
 491.44  35.133  23.396
 491.94  35.197  23.427
 492.44  35.197  23.366
 492.94  35.197  23.427
 493.44  35.133  23.427
 493.94  35.133  23.396
 494.44  35.133  23.396
 494.94  35.197  23.396
 495.44  35.197  23.427
 495.94  35.197  23.396
 496.44  35.133  23.396
 496.94  35.261  23.396
 497.44  35.197  23.396
 497.94  35.197  23.396
 498.44  35.197  23.396
 498.94  35.261  23.396
 499.44  35.197  23.396
 499.94  35.133  23.396
 500.44  35.261  23.396
 500.94  35.197  23.366
 501.44  35.197  23.396
 501.94  35.261  23.427
 502.44  35.325  23.427
 502.94  35.133  23.396
 503.44  35.261  23.396
 503.94  35.325  23.396
 504.44  35.261  23.427
 504.94  35.261  23.427
 505.44  35.197  23.396
 505.94  35.261  23.427
 506.44  35.197  23.366
 506.94  35.261  23.427
 507.44  35.325  23.396
 507.94  35.261  23.396
 508.44  35.325  23.396
 508.94  35.325  23.396
 509.44  35.389  23.366
 509.94  35.261  23.396
 510.44  35.325  23.427
 510.94  35.389  23.396
 511.44  35.325  23.396
 511.94  35.261  23.396
 512.45  35.261  23.396
 512.95  35.325  23.427
 513.45  35.325  23.396
 513.95  35.325  23.396
 514.45  35.389  23.427
 514.95  35.389  23.458
 515.45  35.389  23.396
 515.95  35.325  23.335
 516.45  35.261  23.396
 516.95  35.325  23.396
 517.45  35.325  23.427
 517.95  35.389  23.396
 518.45  35.325  23.396
 518.95  35.325  23.396
 519.45  35.325  23.396
 519.95  35.261  23.396
 520.45  35.325  23.396
 520.95  35.453  23.396
 521.45  35.389  23.396
 521.95  35.325  23.396
 522.45  35.325  23.427
 522.95  35.453  23.427
 523.45  35.389  23.396
 523.95  35.389  23.427
 524.45  35.453  23.396
 524.95  35.453  23.396
 525.45  35.453  23.396
 525.95  35.325  23.427
 526.45  35.453  23.427
 526.95  35.453  23.427
 527.45  35.389  23.427
 527.95  35.453  23.396
 528.45  35.517  23.396
 528.95  35.453  23.366
 529.45  35.325  23.396
 529.95  35.389  23.489
 530.45  35.453  23.427
 530.95  35.389  23.427
 531.45  35.389  23.427
 531.95  35.517  23.458
 532.45  35.517  23.366
 532.95  35.517  23.396
 533.45  35.517  23.427
 533.95  35.325  23.396
 534.45  35.453  23.427
 534.95  35.453  23.396
 535.45  35.453  23.396
 535.95  35.517  23.396
 536.45  35.453  23.366
 536.95  35.453  23.396
 537.45  35.517  23.427
 537.95  35.517  23.396
 538.45  35.517  23.427
 538.95  35.517  23.396
 539.45  35.517  23.366
 539.95  35.517  23.427
 540.45  35.517  23.427
 540.95  35.517  23.396
 541.45  35.517  23.396
 541.95  35.517  23.427
 542.45  35.453  23.396
 542.95  35.581  23.458
 543.45  35.645  23.427
 543.95  35.517  23.396
 544.45  35.581  23.396
 544.95  35.581  23.396
 545.45  35.453  23.396
 545.95  35.581  23.366
 546.45  35.517  23.396
 546.95  35.581  23.427
 547.45  35.517  23.458
 547.95  35.517  23.427
 548.45  35.581  23.396
 548.95  35.581  23.396
 549.45  35.581  23.396
 549.95  35.581  23.396
 550.45  35.581  23.427
 550.95  35.517  23.396
 551.45  35.581  23.396
 551.95  35.517  23.396
 552.45  35.581  23.427
 552.95  35.581  23.489
 553.45  35.645  23.427
 553.95  35.581  23.427
 554.45  35.581  23.427
 554.95  35.581  23.396
 555.45  35.709  23.396
 555.95  35.581  23.489
 556.45  35.645  23.427
 556.95  35.645  23.366
 557.45  35.645  23.396
 557.95  35.645  23.366
 558.45  35.645  23.396
 558.95  35.517  23.427
 559.45  35.581  23.427
 559.95  35.645  23.366
 560.45  35.581  23.427
 560.95  35.645  23.396
 561.45  35.645  23.427
 561.95  35.645  23.396
 562.45  35.709  23.396
 562.95  35.645  23.427
 563.45  35.517  23.396
 563.95  35.645  23.427
 564.45  35.709  23.396
 564.95  35.645  23.427
 565.45  35.645  23.427
 565.95  35.645  23.427
 566.45  35.709  23.366
 566.95  35.709  23.427
 567.45  35.645  23.427
 567.95  35.645  23.366
 568.45  35.709  23.427
 568.95  35.709  23.427
 569.45  35.709  23.427
 569.95  35.709  23.427
 570.45  35.645  23.458
 570.95  35.773  23.427
 571.45  35.709  23.427
 571.95  35.709  23.427
 572.45  35.709  23.427
 572.95  35.645  23.427
 573.45  35.709  23.396
 573.95  35.773  23.396
 574.45  35.709  23.427
 574.95  35.773  23.427
 575.45  35.709  23.396
 575.95  35.837  23.458
 576.45  35.709  23.396
 576.95  35.773  23.427
 577.45  35.773  23.427
 577.95  35.773  23.427
 578.45  35.709  23.427
 578.95  35.773  23.396
 579.45  35.773  23.396
 579.95  35.965  23.427
 580.45  35.773  23.427
 580.95  35.837  23.427
 581.45  35.773  23.366
 581.95  35.773  23.427
 582.45  35.837  23.427
 582.95  35.773  23.427
 583.45  35.709  23.427
 583.95  35.837  23.458
 584.45  35.837  23.427
 584.95  35.773  23.427
 585.45  35.901  23.427
 585.95  35.901  23.396
 586.45  35.645  23.427
 586.95  35.773  23.427
 587.45  35.773  23.427
 587.95  35.837  23.427
 588.45  35.773  23.396
 588.95  35.773  23.427
 589.45  35.837  23.458
 589.95  35.773  23.396
 590.45  35.773  23.427
 590.95  35.773  23.427
 591.45  35.837  23.427
 591.95  35.837  23.396
 592.45  35.901  23.396
 592.95  35.837  23.427
 593.45  35.901  23.427
 593.95  35.837  23.427
 594.45  35.901  23.427
 594.95  35.901  23.427
 595.45  35.837  23.396
 595.95  35.901  23.396
 596.45  35.901  23.396
 596.95  35.837  23.427
 597.45  35.901  23.458
 597.95  35.837  23.427
 598.45  35.837  23.396
 598.95  35.837  23.427
 599.45  35.837  23.396
 599.95  35.837  23.427
 600.45  35.773  23.396
 600.95  35.837  23.427
 601.45  35.773  23.396
 601.95  35.837  23.427
 602.45  35.965  23.458
 602.95  35.901  23.427
 603.45  35.901  23.396
 603.95  35.901  23.427
 604.45  35.901  23.427
 604.95  35.901  23.427
 605.45  35.837  23.458
 605.95  35.901  23.458
 606.45  35.901  23.427
 606.95  35.965  23.489
 607.45  35.901  23.458
 607.95  35.965  23.427
 608.45  35.837  23.427
 608.95  35.965  23.396
 609.45  35.901  23.427
 609.95  35.901  23.396
 610.45  35.965  23.427
 610.95  35.965  23.458
 611.45  36.029  23.427
 611.95  35.965  23.396
 612.45  36.029  23.396
 612.95  35.965  23.458
 613.45  35.965  23.458
 613.95  35.965  23.458
 614.45  35.965  23.427
 614.95  36.029  23.458
 615.45  35.837  23.458
 615.95  35.965  23.427
 616.45  35.965  23.427
 616.95  36.029  23.427
 617.45  35.965  23.427
 617.95  35.965  23.396
 618.45  35.965  23.427
 618.95  35.965  23.427
 619.45  36.029  23.458
 619.95  36.029  23.427
 620.45  36.157  23.427
 620.95  35.965  23.427
 621.45  36.029  23.427
 621.95  35.965  23.427
 622.45  35.965  23.458
 622.95  35.901  23.427
 623.45  36.029  23.458
 623.96  35.965  23.396
 624.46  36.093  23.427
 624.96  36.029  23.458
 625.46  36.029  23.396
 625.96  35.901  23.427
 626.46  35.965  23.427
 626.96  36.093  23.427
 627.46  36.029  23.458
 627.96  36.029  23.427
 628.46  36.093  23.427
 628.96  36.029  23.458
 629.46  36.029  23.458
 629.96  36.029  23.396
 630.46  36.029  23.427
 630.96  36.029  23.520
 631.46  36.093  23.396
 631.96  36.093  23.458
 632.46  36.029  23.427
 632.96  36.157  23.427
 633.46  36.093  23.427
 633.96  36.093  23.489
 634.46  36.093  23.427
 634.96  36.093  23.427
 635.46  36.093  23.366
 635.96  36.029  23.427
 636.46  36.093  23.427
 636.96  36.093  23.427
 637.46  36.093  23.458
 637.96  36.093  23.427
 638.46  36.221  23.458
 638.96  36.157  23.458
 639.46  36.093  23.427
 639.96  36.157  23.427
 640.46  36.157  23.458
 640.96  36.029  23.458
 641.46  36.157  23.396
 641.96  36.157  23.427
 642.46  36.093  23.489
 642.96  36.157  23.427
 643.46  36.093  23.458
 643.96  36.157  23.458
 644.46  36.157  23.427
 644.96  36.093  23.427
 645.46  36.157  23.458
 645.96  36.221  23.458
 646.46  36.285  23.427
 646.96  36.157  23.427
 647.46  36.157  23.427
 647.96  36.221  23.458
 648.46  36.221  23.427
 648.96  36.157  23.427
 649.46  36.157  23.427
 649.96  36.157  23.458
 650.46  36.157  23.396
 650.96  36.157  23.427
 651.46  36.157  23.458
 651.96  36.221  23.396
 652.46  36.029  23.427
 652.96  36.221  23.427
 653.46  36.157  23.427
 653.96  36.221  23.458
 654.46  36.221  23.396
 654.96  36.221  23.427
 655.46  36.221  23.458
 655.96  36.221  23.458
 656.46  36.221  23.427
 656.96  36.221  23.427
 657.46  36.157  23.427
 657.96  36.157  23.458
 658.46  36.221  23.458
 658.96  36.157  23.427
 659.46  36.157  23.427
 659.96  36.285  23.427
 660.46  36.221  23.458
 660.96  36.157  23.458
 661.46  36.221  23.427
 661.96  36.221  23.489
 662.46  36.285  23.427
 662.96  36.221  23.427
 663.46  36.221  23.458
 663.96  36.221  23.458
 664.46  36.221  23.458
 664.96  36.221  23.427
 665.46  36.285  23.427
 665.96  36.285  23.458
 666.46  36.221  23.427
 666.96  36.221  23.427
 667.46  36.285  23.458
 667.96  36.221  23.427
 668.46  36.221  23.458
 668.96  36.285  23.458
 669.46  36.285  23.427
 669.96  36.221  23.458
 670.46  36.221  23.427
 670.96  36.285  23.458
 671.46  36.221  23.458
 671.96  36.285  23.458
 672.46  36.285  23.458
 672.96  36.285  23.427
 673.46  36.349  23.458
 673.96  36.349  23.489
 674.46  36.349  23.427
 674.96  36.349  23.458
 675.46  36.285  23.427
 675.96  36.285  23.458
 676.46  36.285  23.427
 676.96  36.285  23.427
 677.46  36.285  23.427
 677.96  36.349  23.520
 678.46  36.285  23.458
 678.96  36.285  23.458
 679.46  36.285  23.427
 679.96  36.349  23.458
 680.46  36.285  23.458
 680.96  36.349  23.427
 681.46  36.349  23.458
 681.96  36.285  23.458
 682.46  36.349  23.489
 682.96  36.349  23.458
 683.46  36.349  23.458
 683.96  36.349  23.458
 684.46  36.285  23.458
 684.96  36.285  23.458
 685.46  36.349  23.458
 685.96  36.349  23.427
 686.46  36.349  23.427
 686.96  36.349  23.458
 687.46  36.413  23.458
 687.96  36.477  23.396
 688.46  36.349  23.458
 688.96  36.413  23.489
 689.46  36.349  23.458
 689.96  36.477  23.396
 690.46  36.349  23.458
 690.96  36.285  23.458
 691.46  36.413  23.458
 691.96  36.413  23.427
 692.46  36.349  23.458
 692.96  36.413  23.427
 693.46  36.413  23.458
 693.96  36.413  23.458
 694.46  36.413  23.458
 694.96  36.413  23.458
 695.46  36.349  23.427
 695.96  36.349  23.427
 696.46  36.413  23.458
 696.96  36.413  23.458
 697.46  36.413  23.458
 697.96  36.349  23.427
 698.46  36.477  23.458
 698.96  36.349  23.458
 699.46  36.285  23.427
 699.96  36.413  23.458
 700.46  36.413  23.396
 700.96  36.413  23.489
 701.46  36.413  23.458
 701.96  36.477  23.458
 702.46  36.413  23.458
 702.96  36.413  23.489
 703.46  36.477  23.458
 703.96  36.413  23.458
 704.46  36.413  23.458
 704.96  36.541  23.427
 705.46  36.477  23.458
 705.96  36.477  23.427
 706.46  36.413  23.427
 706.96  36.477  23.427
 707.46  36.413  23.489
 707.96  36.413  23.427
 708.46  36.413  23.458
 708.96  36.349  23.489
 709.46  36.477  23.458
 709.96  36.413  23.458
 710.46  36.477  23.458
 710.96  36.477  23.489
 711.46  36.477  23.520
 711.96  36.477  23.427
 712.46  36.413  23.458
 712.96  36.477  23.458
 713.46  36.413  23.458
 713.96  36.541  23.489
 714.46  36.477  23.489
 714.96  36.477  23.458
 715.46  36.541  23.396
 715.96  36.413  23.396
 716.46  36.477  23.458
 716.96  36.541  23.489
 717.46  36.413  23.458
 717.96  36.477  23.489
 718.46  36.477  23.458
 718.96  36.477  23.458
 719.46  36.477  23.458
 719.96  36.477  23.458
 720.46  36.541  23.489
 720.96  36.477  23.458
 721.46  36.541  23.458
 721.96  36.541  23.458
 722.46  36.669  23.489
 722.96  36.605  23.458
 723.46  36.541  23.458
 723.96  36.541  23.458
 724.46  36.541  23.489
 724.96  36.669  23.458
 725.46  36.541  23.427
 725.96  36.541  23.458
 726.46  36.477  23.458
 726.96  36.541  23.458
 727.46  36.541  23.458
 727.96  36.541  23.458
 728.46  36.541  23.489
 728.96  36.541  23.427
 729.46  36.477  23.458
 729.96  36.541  23.458
 730.46  36.477  23.489
 730.96  36.605  23.458
 731.46  36.541  23.458
 731.96  36.605  23.458
 732.46  36.605  23.458
 732.96  36.477  23.458
 733.46  36.605  23.458
 733.96  36.541  23.458
 734.46  36.541  23.458
 734.96  36.605  23.458
 735.46  36.605  23.427
 735.96  36.669  23.458
 736.46  36.541  23.458
 736.96  36.541  23.427
 737.47  36.605  23.489
 737.97  36.605  23.458
 738.47  36.541  23.489
 738.97  36.605  23.458
 739.47  36.541  23.427
 739.97  36.605  23.489
 740.47  36.669  23.458
 740.97  36.541  23.458
 741.47  36.605  23.458
 741.97  36.605  23.489
 742.47  36.605  23.489
 742.97  36.605  23.458
 743.47  36.605  23.458
 743.97  36.541  23.458
 744.47  36.605  23.489
 744.97  36.605  23.458
 745.47  36.733  23.458
 745.97  36.605  23.458
 746.47  36.669  23.458
 746.97  36.669  23.458
 747.47  36.605  23.458
 747.97  36.669  23.458
 748.47  36.669  23.458
 748.97  36.669  23.458
 749.47  36.605  23.458
 749.97  36.541  23.489
 750.47  36.733  23.520
 750.97  36.733  23.489
 751.47  36.669  23.489
 751.97  36.669  23.489
 752.47  36.541  23.489
 752.97  36.605  23.489
 753.47  36.477  23.458
 753.97  36.605  23.489
 754.47  36.669  23.458
 754.97  36.605  23.458
 755.47  36.669  23.489
 755.97  36.669  23.427
 756.47  36.733  23.489
 756.97  36.733  23.458
 757.47  36.669  23.458
 757.97  36.733  23.489
 758.47  36.733  23.489
 758.97  36.669  23.550
 759.47  36.733  23.458
 759.97  36.605  23.458
 760.47  36.669  23.520
 760.97  36.733  23.458
 761.47  36.669  23.489
 761.97  36.669  23.489
 762.47  36.669  23.458
 762.97  36.733  23.458
 763.47  36.669  23.489
 763.97  36.733  23.458
 764.47  36.669  23.458
 764.97  36.669  23.458
 765.47  36.669  23.458
 765.97  36.669  23.489
 766.47  36.733  23.489
 766.97  36.733  23.489
 767.47  36.605  23.458
 767.97  36.669  23.458
 768.47  36.733  23.489
 768.97  36.733  23.489
 769.47  36.733  23.489
 769.97  36.605  23.458
 770.47  36.733  23.458
 770.97  36.669  23.427
 771.47  36.733  23.458
 771.97  36.733  23.396
 772.47  36.797  23.458
 772.97  36.733  23.458
 773.47  36.797  23.489
 773.97  36.861  23.489
 774.47  36.733  23.458
 774.97  36.733  23.489
 775.47  36.797  23.458
 775.97  36.669  23.458
 776.47  36.925  23.458
 776.97  36.733  23.458
 777.47  36.733  23.458
 777.97  36.797  23.489
 778.47  36.797  23.458
 778.97  36.797  23.520
 779.47  36.669  23.458
 779.97  36.797  23.489
 780.47  36.797  23.489
 780.97  36.797  23.427
 781.47  36.797  23.489
 781.97  36.733  23.427
 782.47  36.669  23.489
 782.97  36.797  23.489
 783.47  36.797  23.458
 783.97  36.861  23.458
 784.47  36.733  23.458
 784.97  36.797  23.489
 785.47  36.797  23.489
 785.97  36.861  23.489
 786.47  36.797  23.489
 786.97  36.797  23.520
 787.47  36.797  23.458
 787.97  36.733  23.520
 788.47  36.797  23.489
 788.97  36.861  23.458
 789.47  36.861  23.520
 789.97  36.861  23.550
 790.47  36.797  23.489
 790.97  36.797  23.489
 791.47  36.861  23.489
 791.97  36.797  23.458
 792.47  36.861  23.489
 792.97  36.797  23.489
 793.47  36.797  23.489
 793.97  36.797  23.458
 794.47  36.797  23.489
 794.97  36.797  23.458
 795.47  36.861  23.427
 795.97  36.861  23.489
 796.47  36.925  23.458
 796.97  36.797  23.489
 797.47  36.925  23.489
 797.97  36.861  23.458
 798.47  36.861  23.489
 798.97  36.861  23.489
 799.47  36.861  23.458
 799.97  36.733  23.489
 800.47  36.861  23.520
 800.97  36.861  23.489
 801.47  36.861  23.489
 801.97  36.861  23.489
 802.47  36.861  23.489
 802.97  36.861  23.489
 803.47  36.861  23.520
 803.97  36.861  23.489
 804.47  36.861  23.489
 804.97  36.861  23.489
 805.47  36.861  23.520
 805.97  36.861  23.520
 806.47  36.861  23.489
 806.97  36.797  23.458
 807.47  36.861  23.520
 807.97  36.925  23.489
 808.47  36.925  23.489
 808.97  36.861  23.489
 809.47  36.861  23.489
 809.97  36.861  23.458
 810.47  36.861  23.458
 810.97  36.925  23.489
 811.47  36.861  23.427
 811.97  36.925  23.489
 812.47  36.989  23.489
 812.97  36.925  23.489
 813.47  36.861  23.458
 813.97  36.925  23.489
 814.47  36.925  23.489
 814.97  36.925  23.489
 815.47  36.925  23.489
 815.97  36.861  23.458
 816.47  36.989  23.489
 816.97  36.989  23.489
 817.47  36.925  23.520
 817.97  36.925  23.520
 818.47  36.989  23.489
 818.97  36.989  23.520
 819.47  36.989  23.489
 819.97  37.053  23.520
 820.47  36.925  23.489
 820.97  36.861  23.489
 821.47  36.925  23.489
 821.97  36.925  23.520
 822.47  36.989  23.489
 822.97  36.861  23.489
 823.47  36.925  23.489
 823.97  36.989  23.489
 824.47  36.989  23.489
 824.97  36.861  23.489
 825.47  36.989  23.520
 825.97  36.925  23.489
 826.47  36.989  23.520
 826.97  36.989  23.489
 827.47  36.925  23.489
 827.97  36.925  23.489
 828.47  36.989  23.520
 828.97  36.989  23.458
 829.47  36.925  23.550
 829.97  36.989  23.489
 830.47  36.925  23.520
 830.97  36.989  23.489
 831.47  36.925  23.520
 831.97  36.989  23.458
 832.47  36.989  23.489
 832.97  36.925  23.489
 833.47  37.053  23.489
 833.97  36.989  23.489
 834.47  36.989  23.489
 834.97  36.989  23.489
 835.47  36.989  23.458
 835.97  36.989  23.489
 836.47  36.989  23.489
 836.97  36.989  23.458
 837.47  36.989  23.489
 837.97  36.989  23.489
 838.47  36.925  23.520
 838.97  36.989  23.489
 839.47  36.989  23.458
 839.97  36.989  23.458
 840.47  36.989  23.489
 840.97  37.053  23.489
 841.47  36.797  23.489
 841.97  36.989  23.489
 842.47  36.989  23.520
 842.97  36.989  23.489
 843.47  37.053  23.489
 843.97  36.989  23.520
 844.47  36.925  23.520
 844.97  37.053  23.458
 845.47  37.117  23.520
 845.97  37.053  23.520
 846.47  37.117  23.520
 846.97  37.117  23.520
 847.47  37.053  23.458
 847.97  37.117  23.489
 848.47  36.989  23.520
 848.97  37.053  23.489
 849.47  37.053  23.520
 849.97  37.117  23.520
 850.48  37.053  23.550
 850.98  37.053  23.489
 851.48  37.053  23.520
 851.98  37.053  23.489
 852.48  37.117  23.520
 852.98  37.053  23.520
 853.48  37.117  23.520
 853.98  36.989  23.489
 854.48  37.181  23.520
 854.98  37.117  23.489
 855.48  36.925  23.489
 855.98  37.117  23.520
 856.48  37.117  23.489
 856.98  37.053  23.458
 857.48  37.245  23.520
 857.98  37.053  23.489
 858.48  37.053  23.520
 858.98  37.053  23.550
 859.48  37.117  23.489
 859.98  37.117  23.520
 860.48  37.117  23.489
 860.98  37.181  23.520
 861.48  37.117  23.489
 861.98  37.053  23.489
 862.48  37.117  23.520
 862.98  37.053  23.489
 863.48  37.053  23.489
 863.98  37.181  23.458
 864.48  37.117  23.489
 864.98  37.117  23.489
 865.48  37.181  23.458
 865.98  37.117  23.520
 866.48  37.053  23.520
 866.98  37.117  23.520
 867.48  37.053  23.489
 867.98  37.117  23.520
 868.48  37.117  23.489
 868.98  37.117  23.520
 869.48  37.117  23.489
 869.98  37.181  23.489
 870.48  37.053  23.520
 870.98  37.117  23.489
 871.48  37.117  23.520
 871.98  37.181  23.520
 872.48  37.181  23.520
 872.98  37.117  23.520
 873.48  37.117  23.489
 873.98  37.117  23.458
 874.48  37.117  23.489
 874.98  37.053  23.550
 875.48  37.053  23.489
 875.98  37.181  23.520
 876.48  37.117  23.520
 876.98  37.117  23.550
 877.48  37.181  23.520
 877.98  37.117  23.489
 878.48  37.181  23.520
 878.98  37.181  23.520
 879.48  37.181  23.520
 879.98  37.181  23.489
 880.48  37.181  23.520
 880.98  37.245  23.581
 881.48  37.181  23.489
 881.98  37.117  23.520
 882.48  37.117  23.489
 882.98  37.245  23.489
 883.48  37.181  23.520
 883.98  37.181  23.520
 884.48  37.245  23.550
 884.98  37.181  23.520
 885.48  37.181  23.520
 885.98  37.245  23.520
 886.48  37.181  23.520
 886.98  37.245  23.520
 887.48  37.245  23.520
 887.98  37.181  23.520
 888.48  37.181  23.489
 888.98  37.181  23.520
 889.48  37.117  23.520
 889.98  37.181  23.520
 890.48  37.181  23.489
 890.98  37.245  23.550
 891.48  37.245  23.550
 891.98  37.245  23.520
 892.48  37.181  23.489
 892.98  37.245  23.520
 893.48  37.245  23.550
 893.98  37.181  23.520
 894.48  37.309  23.520
 894.98  37.309  23.520
 895.48  37.373  23.550
 895.98  37.245  23.489
 896.48  37.181  23.520
 896.98  37.181  23.489
 897.48  37.245  23.520
 897.98  37.245  23.520
 898.48  37.245  23.520
 898.98  37.245  23.550
 899.48  37.245  23.520
 899.98  37.245  23.520
 900.48  37.181  23.520
 900.98  37.181  23.550
 901.48  37.245  23.520
 901.98  37.181  23.520
 902.48  37.245  23.520
 902.98  37.245  23.520
 903.48  37.245  23.489
 903.98  37.181  23.489
 904.48  37.245  23.520
 904.98  37.245  23.520
 905.48  37.245  23.520
 905.98  37.309  23.520
 906.48  37.245  23.550
 906.98  37.245  23.550
 907.48  37.245  23.520
 907.98  37.309  23.489
 908.48  37.309  23.489
 908.98  37.309  23.520
 909.48  37.181  23.550
 909.98  37.309  23.520
 910.48  37.181  23.520
 910.98  37.181  23.489
 911.48  37.245  23.520
 911.98  37.309  23.550
 912.48  37.309  23.520
 912.98  37.245  23.520
 913.48  37.309  23.520
 913.98  37.309  23.550
 914.48  37.245  23.550
 914.98  37.309  23.520
 915.48  37.181  23.520
 915.98  37.245  23.520
 916.48  37.309  23.550
 916.98  37.245  23.520
 917.48  37.309  23.520
 917.98  37.309  23.520
 918.48  37.245  23.520
 918.98  37.309  23.489
 919.48  37.309  23.520
 919.98  37.309  23.581
 920.48  37.373  23.581
 920.98  37.309  23.489
 921.48  37.309  23.550
 921.98  37.245  23.550
 922.48  37.245  23.550
 922.98  37.309  23.550
 923.48  37.309  23.550
 923.98  37.373  23.550
 924.48  37.309  23.550
 924.98  37.373  23.550
 925.48  37.373  23.550
 925.98  37.309  23.550
 926.48  37.309  23.520
 926.98  37.373  23.489
 927.48  37.373  23.520
 927.98  37.373  23.550
 928.48  37.373  23.520
 928.98  37.373  23.520
 929.48  37.373  23.550
 929.98  37.373  23.550
 930.48  37.437  23.581
 930.98  37.373  23.550
 931.48  37.309  23.520
 931.98  37.309  23.520
 932.48  37.309  23.550
 932.98  37.437  23.520
 933.48  37.501  23.550
 933.98  37.245  23.550
 934.48  37.309  23.520
 934.98  37.309  23.550
 935.48  37.309  23.520
 935.98  37.437  23.550
 936.48  37.373  23.550
 936.98  37.309  23.550
 937.48  37.373  23.520
 937.98  37.373  23.520
 938.48  37.373  23.520
 938.98  37.437  23.550
 939.48  37.373  23.550
 939.98  37.309  23.550
 940.48  37.373  23.520
 940.98  37.373  23.520
 941.48  37.437  23.581
 941.98  37.373  23.520
 942.48  37.373  23.550
 942.98  37.501  23.550
 943.48  37.309  23.520
 943.98  37.437  23.520
 944.48  37.437  23.550
 944.98  37.437  23.550
 945.48  37.437  23.550
 945.98  37.309  23.520
 946.48  37.373  23.520
 946.98  37.309  23.581
 947.48  37.309  23.520
 947.98  37.437  23.520
 948.48  37.373  23.520
 948.98  37.437  23.520
 949.48  37.629  23.520
 949.98  37.309  23.550
 950.48  37.437  23.550
 950.98  37.437  23.520
 951.48  37.501  23.520
 951.98  37.373  23.520
 952.48  37.437  23.550
 952.98  37.373  23.520
 953.48  37.437  23.550
 953.98  37.373  23.550
 954.48  37.501  23.520
 954.98  37.437  23.550
 955.48  37.437  23.581
 955.98  37.501  23.581
 956.48  37.437  23.550
 956.98  37.437  23.520
 957.48  37.373  23.550
 957.98  37.373  23.550
 958.48  37.437  23.612
 958.98  37.437  23.550
 959.48  37.437  23.520
 959.98  37.437  23.550
 960.48  37.437  23.520
 960.98  37.437  23.520
 961.48  37.501  23.520
 961.98  37.437  23.581
 962.48  37.437  23.550
 962.98  37.437  23.520
 963.49  37.437  23.520
 963.99  37.437  23.520
 964.49  37.437  23.550
 964.99  37.373  23.520
 965.49  37.373  23.550
 965.99  37.437  23.550
 966.49  37.501  23.550
 966.99  37.501  23.520
 967.49  37.501  23.550
 967.99  37.501  23.581
 968.49  37.501  23.550
 968.99  37.437  23.550
 969.49  37.437  23.520
 969.99  37.437  23.550
 970.49  37.373  23.550
 970.99  37.437  23.520
 971.49  37.373  23.520
 971.99  37.501  23.520
 972.49  37.437  23.581
 972.99  37.501  23.550
 973.49  37.373  23.550
 973.99  37.437  23.550
 974.49  37.437  23.520
 974.99  37.437  23.550
 975.49  37.501  23.550
 975.99  37.565  23.550
 976.49  37.501  23.550
 976.99  37.501  23.550
 977.49  37.501  23.581
 977.99  37.501  23.550
 978.49  37.501  23.550
 978.99  37.501  23.550
 979.49  37.565  23.550
 979.99  37.501  23.550
 980.49  37.501  23.550
 980.99  37.565  23.550
 981.49  37.501  23.550
 981.99  37.565  23.550
 982.49  37.501  23.550
 982.99  37.501  23.581
 983.49  37.565  23.520
 983.99  37.501  23.581
 984.49  37.565  23.550
 984.99  37.565  23.550
 985.49  37.501  23.581
 985.99  37.565  23.581
 986.49  37.565  23.581
 986.99  37.437  23.550
 987.49  37.501  23.550
 987.99  37.373  23.550
 988.49  37.565  23.581
 988.99  37.501  23.550
 989.49  37.501  23.520
 989.99  37.565  23.520
 990.49  37.565  23.581
 990.99  37.565  23.581
 991.49  37.565  23.550
 991.99  37.565  23.581
 992.49  37.693  23.550
 992.99  37.629  23.550
 993.49  37.565  23.581
 993.99  37.565  23.550
 994.49  37.565  23.581
 994.99  37.565  23.581
 995.49  37.629  23.550
 995.99  37.565  23.550
 996.49  37.565  23.581
 996.99  37.565  23.550
 997.49  37.501  23.550
 997.99  37.501  23.550
 998.49  37.501  23.550
 998.99  37.629  23.612
 999.49  37.565  23.550
 999.99  37.629  23.550
1000.49  37.565  23.550
1000.99  37.565  23.550
1001.49  37.565  23.550
1001.99  37.565  23.550
1002.49  37.501  23.581
1002.99  37.501  23.550
1003.49  37.565  23.520
1003.99  37.629  23.550
1004.49  37.565  23.581
1004.99  37.565  23.550
1005.49  37.565  23.550
1005.99  37.565  23.550
1006.49  37.629  23.550
1006.99  37.693  23.581
1007.49  37.565  23.550
1007.99  37.629  23.520
1008.49  37.629  23.612
1008.99  37.565  23.581
1009.49  37.629  23.581
1009.99  37.565  23.520
1010.49  37.565  23.581
1010.99  37.565  23.581
1011.49  37.629  23.643
1011.99  37.501  23.581
1012.49  37.565  23.581
1012.99  37.629  23.550
1013.49  37.693  23.550
1013.99  37.693  23.581
1014.49  37.565  23.520
1014.99  37.629  23.550
1015.49  37.629  23.581
1015.99  37.629  23.550
1016.49  37.565  23.550
1016.99  37.565  23.581
1017.49  37.629  23.581
1017.99  37.629  23.550
1018.49  37.629  23.581
1018.99  37.629  23.550
1019.49  37.629  23.550
1019.99  37.629  23.550
1020.49  37.629  23.550
1020.99  37.629  23.550
1021.49  37.629  23.550
1021.99  37.629  23.520
1022.49  37.629  23.612
1022.99  37.629  23.520
1023.49  37.693  23.581
1023.99  37.693  23.550
1024.49  37.693  23.520
1024.99  37.629  23.581
1025.49  37.501  23.550
1025.99  37.629  23.612
1026.49  37.629  23.550
1026.99  37.693  23.550
1027.49  37.693  23.520
1027.99  37.629  23.612
1028.49  37.629  23.550
1028.99  37.629  23.550
1029.49  37.693  23.550
1029.99  37.693  23.581
1030.49  37.693  23.581
1030.99  37.693  23.550
1031.49  37.629  23.550
1031.99  37.693  23.550
1032.49  37.629  23.550
1032.99  37.629  23.520
1033.49  37.629  23.550
1033.99  37.693  23.581
1034.49  37.821  23.520
1034.99  37.693  23.550
1035.49  37.629  23.550
1035.99  37.693  23.520
1036.49  37.629  23.550
1036.99  37.693  23.520
1037.49  37.757  23.581
1037.99  37.693  23.550
1038.49  37.693  23.581
1038.99  37.629  23.581
1039.49  37.693  23.581
1039.99  37.693  23.581
1040.49  37.693  23.581
1040.99  37.693  23.550
1041.49  37.693  23.550
1041.99  37.693  23.581
1042.49  37.693  23.550
1042.99  37.757  23.550
1043.49  37.629  23.550
1043.99  37.757  23.550
1044.49  37.693  23.581
1044.99  37.693  23.550
1045.49  37.693  23.550
1045.99  37.757  23.612
1046.49  37.693  23.581
1046.99  37.693  23.581
1047.49  37.693  23.581
1047.99  37.693  23.581
1048.49  37.693  23.550
1048.99  37.693  23.581
1049.49  37.757  23.581
1049.99  37.693  23.581
1050.49  37.693  23.581
1050.99  37.693  23.581
1051.49  37.757  23.581
1051.99  37.757  23.581
1052.49  37.757  23.550
1052.99  37.757  23.581
1053.49  37.757  23.520
1053.99  37.821  23.581
1054.49  37.757  23.581
1054.99  37.757  23.550
1055.49  37.757  23.550
1055.99  37.629  23.581
1056.49  37.693  23.581
1056.99  37.693  23.520
1057.49  37.693  23.581
1057.99  37.757  23.550
1058.49  37.757  23.581
1058.99  37.693  23.581
1059.49  37.693  23.581
1059.99  37.757  23.550
1060.49  37.693  23.550
1060.99  37.757  23.550
1061.49  37.757  23.581
1061.99  37.757  23.550
1062.49  37.757  23.581
1062.99  37.757  23.550
1063.49  37.757  23.581
1063.99  37.885  23.550
1064.49  37.821  23.581
1064.99  37.693  23.550
1065.49  37.821  23.581
1065.99  37.757  23.550
1066.49  37.821  23.550
1066.99  37.821  23.520
1067.49  37.757  23.612
1067.99  37.629  23.581
1068.49  37.757  23.581
1068.99  37.757  23.581
1069.49  37.821  23.581
1069.99  37.821  23.550
1070.49  37.757  23.581
1070.99  37.821  23.581
1071.49  37.693  23.550
1071.99  37.757  23.581
1072.49  37.821  23.550
1072.99  37.757  23.550
1073.49  37.757  23.581
1073.99  37.757  23.581
1074.49  37.821  23.581
1074.99  37.885  23.550
1075.49  37.757  23.581
1075.99  37.757  23.581
1076.49  37.821  23.581
1076.99  37.757  23.550
1077.49  37.629  23.581
1077.99  37.757  23.612
1078.49  37.757  23.581
1078.99  37.757  23.550
1079.49  37.821  23.581
1079.99  37.757  23.612
1080.49  37.821  23.550
1080.99  37.821  23.581
1081.49  37.821  23.581
1081.99  37.821  23.612
1082.49  37.821  23.581
1082.99  37.821  23.550
1083.49  37.885  23.581
1083.99  37.821  23.550
1084.49  37.949  23.612
1084.99  37.821  23.581
1085.49  37.821  23.550
1085.99  37.821  23.550
1086.49  37.821  23.581
1086.99  37.821  23.581
1087.50  37.885  23.581
1088.00  37.757  23.581
1088.50  37.821  23.612
1089.00  37.757  23.581
1089.50  37.821  23.550
1090.00  37.821  23.581
1090.50  37.885  23.581
1091.00  37.885  23.581
1091.50  37.821  23.581
1092.00  37.821  23.581
1092.50  37.885  23.550
1093.00  37.821  23.581
1093.50  37.821  23.581
1094.00  37.821  23.581
1094.50  37.821  23.581
1095.00  37.949  23.612
1095.50  37.885  23.581
1096.00  37.821  23.581
1096.50  37.885  23.705
1097.00  37.821  23.581
1097.50  37.885  23.612
1098.00  37.821  23.581
1098.50  37.821  23.581
1099.00  37.821  23.581
1099.50  37.949  23.581
1100.00  37.885  23.581
1100.50  37.821  23.581
1101.00  37.885  23.612
1101.50  37.885  23.581
1102.00  37.885  23.550
1102.50  37.949  23.581
1103.00  37.885  23.612
1103.50  37.885  23.581
1104.00  37.885  23.612
1104.50  37.821  23.581
1105.00  37.885  23.581
1105.50  37.949  23.581
1106.00  37.885  23.612
1106.50  37.821  23.612
1107.00  37.821  23.581
1107.50  37.885  23.581
1108.00  37.949  23.581
1108.50  37.885  23.612
1109.00  37.885  23.581
1109.50  37.885  23.581
1110.00  37.885  23.581
1110.50  37.885  23.581
1111.00  38.013  23.581
1111.50  37.885  23.612
1112.00  37.949  23.643
1112.50  37.949  23.612
1113.00  37.885  23.581
1113.50  37.885  23.612
1114.00  37.949  23.550
1114.50  37.949  23.581
1115.00  37.885  23.581
1115.50  37.821  23.612
1116.00  37.949  23.581
1116.50  37.949  23.581
1117.00  37.949  23.581
1117.50  37.949  23.612
1118.00  37.885  23.581
1118.50  37.949  23.612
1119.00  37.821  23.612
1119.50  37.949  23.581
1120.00  37.949  23.612
1120.50  37.949  23.612
1121.00  37.949  23.612
1121.50  37.949  23.643
1122.00  37.949  23.581
1122.50  37.949  23.581
1123.00  37.949  23.550
1123.50  37.949  23.612
1124.00  37.885  23.581
1124.50  37.949  23.612
1125.00  37.949  23.581
1125.50  38.013  23.612
1126.00  37.949  23.612
1126.50  37.949  23.581
1127.00  37.949  23.612
1127.50  37.949  23.643
1128.00  37.885  23.612
1128.50  38.013  23.612
1129.00  37.949  23.612
1129.50  37.949  23.612
1130.00  37.949  23.612
1130.50  37.949  23.581
1131.00  37.949  23.581
1131.50  38.013  23.612
1132.00  37.949  23.581
1132.50  38.013  23.612
1133.00  37.885  23.612
1133.50  37.949  23.581
1134.00  38.013  23.612
1134.50  37.949  23.612
1135.00  37.949  23.612
1135.50  38.013  23.612
1136.00  37.949  23.581
1136.50  37.949  23.612
1137.00  37.949  23.643
1137.50  38.013  23.612
1138.00  38.013  23.612
1138.50  37.949  23.612
1139.00  37.949  23.612
1139.50  38.013  23.612
1140.00  37.949  23.612
1140.50  37.949  23.612
1141.00  37.949  23.612
1141.50  38.013  23.612
1142.00  37.949  23.612
1142.50  37.885  23.581
1143.00  38.013  23.643
1143.50  37.949  23.612
1144.00  38.013  23.612
1144.50  37.949  23.612
1145.00  37.949  23.581
1145.50  37.949  23.612
1146.00  37.949  23.612
1146.50  37.949  23.581
1147.00  37.949  23.643
1147.50  38.013  23.581
1148.00  38.077  23.612
1148.50  38.013  23.581
1149.00  38.013  23.643
1149.50  38.013  23.612
1150.00  38.013  23.612
1150.50  38.013  23.643
1151.00  38.013  23.612
1151.50  38.013  23.581
1152.00  38.013  23.643
1152.50  38.013  23.612
1153.00  38.013  23.612
1153.50  38.013  23.612
1154.00  38.077  23.612
1154.50  38.013  23.612
1155.00  37.949  23.612
1155.50  38.013  23.612
1156.00  38.077  23.612
1156.50  38.013  23.581
1157.00  38.013  23.581
1157.50  37.949  23.612
1158.00  38.077  23.612
1158.50  38.013  23.612
1159.00  37.949  23.581
1159.50  38.013  23.612
1160.00  38.013  23.612
1160.50  38.077  23.581
1161.00  38.013  23.581
1161.50  38.077  23.643
1162.00  38.013  23.643
1162.50  38.077  23.612
1163.00  38.013  23.612
1163.50  37.949  23.612
1164.00  38.077  23.643
1164.50  38.141  23.612
1165.00  38.077  23.643
1165.50  38.013  23.612
1166.00  38.013  23.612
1166.50  38.077  23.612
1167.00  38.013  23.612
1167.50  38.077  23.643
1168.00  38.013  23.581
1168.50  38.077  23.643
1169.00  38.077  23.581
1169.50  38.077  23.643
1170.00  38.077  23.612
1170.50  38.013  23.643
1171.00  38.077  23.612
1171.50  38.013  23.581
1172.00  38.077  23.643
1172.50  38.077  23.612
1173.00  38.077  23.581
1173.50  38.013  23.612
1174.00  38.141  23.612
1174.50  38.077  23.612
1175.00  38.077  23.612
1175.50  38.205  23.612
1176.00  38.077  23.612
1176.50  38.077  23.612
1177.00  38.077  23.612
1177.50  38.141  23.612
1178.00  38.077  23.612
1178.50  38.141  23.612
1179.00  38.077  23.612
1179.50  38.205  23.612
1180.00  38.141  23.612
1180.50  38.077  23.643
1181.00  38.077  23.612
1181.50  38.077  23.612
1182.00  38.077  23.612
1182.50  38.077  23.581
1183.00  38.077  23.612
1183.50  38.141  23.643
1184.00  38.205  23.643
1184.50  38.077  23.581
1185.00  38.141  23.643
1185.50  37.949  23.612
1186.00  38.013  23.612
1186.50  38.013  23.581
1187.00  38.141  23.674
1187.50  38.141  23.612
1188.00  38.077  23.612
1188.50  38.013  23.612
1189.00  38.141  23.581
1189.50  38.013  23.643
1190.01  38.013  23.643
1190.51  38.077  23.612
1191.01  38.141  23.643
1191.51  38.077  23.612
1192.01  38.141  23.674
1192.51  38.077  23.643
1193.01  38.013  23.612
1193.51  38.141  23.612
1194.01  38.205  23.612
1194.51  38.077  23.612
1195.01  38.077  23.643
1195.51  38.077  23.612
1196.01  38.141  23.612
1196.51  38.205  23.643
1197.01  38.205  23.612
1197.51  38.141  23.612
1198.01  38.077  23.674
1198.51  38.141  23.643
1199.01  38.141  23.612
1199.51  38.077  23.643
1200.01  38.141  23.643
1200.51  38.205  23.612
1201.01  38.077  23.612
1201.51  38.141  23.550
1202.01  38.141  23.643
1202.51  38.205  23.612
1203.01  38.141  23.612
1203.51  38.141  23.612
1204.01  38.205  23.612
1204.51  38.205  23.612
1205.01  38.141  23.643
1205.51  38.141  23.643
1206.01  38.077  23.612
1206.51  38.205  23.612
1207.01  38.141  23.612
1207.51  38.141  23.612
1208.01  38.141  23.643
1208.51  38.141  23.612
1209.01  38.077  23.581
1209.51  38.141  23.643
1210.01  38.077  23.612
1210.51  38.141  23.643
1211.01  38.141  23.612
1211.51  38.077  23.643
1212.01  38.141  23.612
1212.51  38.141  23.612
1213.01  38.141  23.612
1213.51  38.077  23.612
1214.01  38.141  23.643
1214.51  38.205  23.612
1215.01  38.205  23.643
1215.51  38.141  23.643
1216.01  38.205  23.612
1216.51  38.205  23.612
1217.01  38.141  23.612
1217.51  38.205  23.643
1218.01  38.205  23.612
1218.51  38.205  23.643
1219.01  38.141  23.643
1219.51  38.141  23.612
1220.01  38.205  23.674
1220.51  38.205  23.643
1221.01  38.205  23.643
1221.51  38.205  23.612
1222.01  38.205  23.643
1222.51  38.205  23.612
1223.01  38.141  23.643
1223.51  38.141  23.612
1224.01  38.205  23.643
1224.51  38.205  23.643
1225.01  38.141  23.612
1225.51  38.141  23.612
1226.01  38.205  23.643
1226.51  38.141  23.612
1227.01  38.205  23.612
1227.51  38.205  23.612
1228.01  38.141  23.674
1228.51  38.205  23.612
1229.01  38.205  23.643
1229.51  38.205  23.612
1230.01  38.269  23.643
1230.51  38.205  23.643
1231.01  38.141  23.705
1231.51  38.205  23.612
1232.01  38.141  23.581
1232.51  38.205  23.643
1233.01  38.205  23.643
1233.51  38.205  23.674
1234.01  38.205  23.612
1234.51  38.205  23.674
1235.01  38.205  23.643
1235.51  38.205  23.643
1236.01  38.333  23.612
1236.51  38.205  23.612
1237.01  38.269  23.612
1237.51  38.205  23.643
1238.01  38.269  23.643
1238.51  38.205  23.643
1239.01  38.269  23.643
1239.51  38.269  23.612
1240.01  38.141  23.643
1240.51  38.205  23.643
1241.01  38.205  23.674
1241.51  38.205  23.674
1242.01  38.205  23.643
1242.51  38.269  23.674
1243.01  38.269  23.643
1243.51  38.205  23.612
1244.01  38.205  23.643
1244.51  38.205  23.612
1245.01  38.269  23.643
1245.51  38.269  23.643
1246.01  38.333  23.643
1246.51  38.269  23.643
1247.01  38.205  23.674
1247.51  38.269  23.643
1248.01  38.269  23.612
1248.51  38.333  23.674
1249.01  38.333  23.643
1249.51  38.269  23.643
1250.01  38.269  23.674
1250.51  38.205  23.674
1251.01  38.333  23.643
1251.51  38.269  23.643
1252.01  38.269  23.612
1252.51  38.269  23.643
1253.01  38.269  23.643
1253.51  38.269  23.643
1254.01  38.333  23.643
1254.51  38.269  23.643
1255.01  38.269  23.643
1255.51  38.205  23.643
1256.01  38.269  23.674
1256.51  38.269  23.674
1257.01  38.141  23.674
1257.51  38.269  23.643
1258.01  38.269  23.643
1258.51  38.269  23.643
1259.01  38.333  23.643
1259.51  38.333  23.643
1260.01  38.269  23.674
1260.51  38.269  23.643
1261.01  38.269  23.643
1261.51  38.269  23.643
1262.01  38.269  23.674
1262.51  38.205  23.643
1263.01  38.269  23.674
1263.51  38.269  23.612
1264.01  38.333  23.643
1264.51  38.269  23.674
1265.01  38.269  23.643
1265.51  38.269  23.643
1266.01  38.269  23.705
1266.51  38.269  23.643
1267.01  38.205  23.674
1267.51  38.333  23.674
1268.01  38.269  23.612
1268.51  38.333  23.643
1269.01  38.333  23.643
1269.51  38.269  23.643
1270.01  38.269  23.643
1270.51  38.269  23.643
1271.01  38.397  23.612
1271.51  38.269  23.643
1272.01  38.269  23.643
1272.51  38.269  23.674
1273.01  38.269  23.674
1273.51  38.269  23.643
1274.01  38.269  23.674
1274.51  38.333  23.643
1275.01  38.333  23.643
1275.51  38.333  23.674
1276.01  38.269  23.674
1276.51  38.269  23.643
1277.01  38.269  23.643
1277.51  38.333  23.643
1278.01  38.397  23.674
1278.51  38.269  23.643
1279.01  38.397  23.674
1279.51  38.269  23.643
1280.01  38.269  23.674
1280.51  38.269  23.643
1281.01  38.333  23.674
1281.51  38.269  23.612
1282.01  38.333  23.674
1282.51  38.333  23.612
1283.01  38.269  23.643
1283.51  38.333  23.612
1284.01  38.333  23.705
1284.51  38.269  23.674
1285.01  38.333  23.674
1285.51  38.269  23.643
1286.01  38.333  23.643
1286.51  38.205  23.612
1287.01  38.333  23.674
1287.51  38.333  23.674
1288.01  38.333  23.643
1288.51  38.333  23.643
1289.01  38.269  23.643
1289.51  38.333  23.643
1290.01  38.333  23.674
1290.51  38.397  23.612
1291.01  38.269  23.705
1291.51  38.269  23.643
1292.01  38.333  23.643
1292.51  38.333  23.705
1293.01  38.333  23.643
1293.51  38.333  23.643
1294.01  38.333  23.643
1294.51  38.333  23.643
1295.01  38.333  23.674
1295.51  38.333  23.643
1296.01  38.525  23.674
1296.51  38.333  23.643
1297.01  38.333  23.674
1297.51  38.333  23.643
1298.01  38.333  23.643
1298.51  38.333  23.643
1299.01  38.333  23.643
1299.51  38.333  23.674
1300.01  38.333  23.705
1300.51  38.397  23.612
1301.01  38.269  23.643
1301.51  38.333  23.643
1302.01  38.333  23.643
1302.51  38.397  23.643
1303.02  38.397  23.674
1303.52  38.333  23.674
1304.02  38.397  23.674
1304.52  38.333  23.643
1305.02  38.397  23.674
1305.52  38.461  23.674
1306.02  38.333  23.643
1306.52  38.333  23.705
1307.02  38.397  23.643
1307.52  38.397  23.674
1308.02  38.397  23.643
1308.52  38.397  23.643
1309.02  38.397  23.674
1309.52  38.589  23.674
1310.02  38.461  23.643
1310.52  38.333  23.674
1311.02  38.397  23.674
1311.52  38.397  23.674
1312.02  38.397  23.674
1312.52  38.333  23.643
1313.02  38.269  23.643
1313.52  38.397  23.674
1314.02  38.397  23.643
1314.52  38.397  23.643
1315.02  38.397  23.643
1315.52  38.397  23.674
1316.02  38.397  23.674
1316.52  38.397  23.643
1317.02  38.397  23.643
1317.52  38.397  23.674
1318.02  38.461  23.705
1318.52  38.397  23.674
1319.02  38.397  23.674
1319.52  38.333  23.674
1320.02  38.397  23.674
1320.52  38.397  23.674
1321.02  38.333  23.674
1321.52  38.397  23.612
1322.02  38.397  23.612
1322.52  38.397  23.705
1323.02  38.397  23.643
1323.52  38.525  23.643
1324.02  38.397  23.674
1324.52  38.397  23.643
1325.02  38.333  23.705
1325.52  38.397  23.643
1326.02  38.525  23.674
1326.52  38.397  23.674
1327.02  38.333  23.674
1327.52  38.397  23.705
1328.02  38.461  23.643
1328.52  38.397  23.674
1329.02  38.461  23.674
1329.52  38.397  23.705
1330.02  38.397  23.705
1330.52  38.397  23.674
1331.02  38.461  23.643
1331.52  38.397  23.674
1332.02  38.461  23.643
1332.52  38.397  23.674
1333.02  38.333  23.674
1333.52  38.461  23.674
1334.02  38.461  23.674
1334.52  38.397  23.674
1335.02  38.397  23.643
1335.52  38.461  23.674
1336.02  38.397  23.643
1336.52  38.397  23.674
1337.02  38.397  23.643
1337.52  38.461  23.674
1338.02  38.333  23.674
1338.52  38.461  23.674
1339.02  38.461  23.674
1339.52  38.333  23.674
1340.02  38.461  23.705
1340.52  38.397  23.643
1341.02  38.525  23.674
1341.52  38.397  23.643
1342.02  38.461  23.674
1342.52  38.461  23.674
1343.02  38.397  23.674
1343.52  38.461  23.674
1344.02  38.397  23.705
1344.52  38.589  23.581
1345.02  38.397  23.643
1345.52  38.269  23.674
1346.02  38.461  23.674
1346.52  38.397  23.705
1347.02  38.461  23.705
1347.52  38.397  23.674
1348.02  38.461  23.705
1348.52  38.461  23.705
1349.02  38.461  23.705
1349.52  38.397  23.674
1350.02  38.333  23.674
1350.52  38.781  23.674
1351.02  38.461  23.674
1351.52  38.525  23.643
1352.02  38.525  23.674
1352.52  38.525  23.674
1353.02  38.525  23.674
1353.52  38.461  23.674
1354.02  38.461  23.674
1354.52  38.461  23.643
1355.02  38.525  23.674
1355.52  38.461  23.674
1356.02  38.525  23.705
1356.52  38.461  23.674
1357.02  38.461  23.643
1357.52  38.525  23.705
1358.02  38.461  23.674
1358.52  38.397  23.674
1359.02  38.461  23.674
1359.52  38.525  23.766
1360.02  38.525  23.705
1360.52  38.461  23.674
1361.02  38.461  23.674
1361.52  38.525  23.674
1362.02  38.461  23.674
1362.52  38.525  23.643
1363.02  38.525  23.674
1363.52  38.461  23.705
1364.02  38.525  23.674
1364.52  38.525  23.705
1365.02  38.461  23.674
1365.52  38.525  23.674
1366.02  38.461  23.674
1366.52  38.525  23.674
1367.02  38.525  23.705
1367.52  38.525  23.674
1368.02  38.589  23.643
1368.52  38.589  23.674
1369.02  38.461  23.735
1369.52  38.461  23.705
1370.02  38.461  23.674
1370.52  38.525  23.674
1371.02  38.525  23.674
1371.52  38.525  23.705
1372.02  38.589  23.674
1372.52  38.525  23.674
1373.02  38.525  23.674
1373.52  38.525  23.674
1374.02  38.525  23.674
1374.52  38.589  23.705
1375.02  38.525  23.674
1375.52  38.525  23.674
1376.02  38.525  23.643
1376.52  38.461  23.705
1377.02  38.525  23.643
1377.52  38.461  23.674
1378.02  38.589  23.674
1378.52  38.461  23.674
1379.02  38.589  23.705
1379.52  38.589  23.674
1380.02  38.589  23.674
1380.52  38.589  23.674
1381.02  38.525  23.705
1381.52  38.589  23.674
1382.02  38.525  23.643
1382.52  38.525  23.705
1383.02  38.525  23.705
1383.52  38.397  23.705
1384.02  38.589  23.705
1384.52  38.589  23.674
1385.02  38.461  23.705
1385.52  38.525  23.674
1386.02  38.525  23.674
1386.52  38.525  23.705
1387.02  38.525  23.674
1387.52  38.525  23.705
1388.02  38.525  23.674
1388.52  38.525  23.705
1389.02  38.589  23.674
1389.52  38.525  23.674
1390.02  38.525  23.705
1390.52  38.525  23.674
1391.02  38.589  23.674
1391.52  38.461  23.674
1392.02  38.589  23.674
1392.52  38.589  23.674
1393.02  38.525  23.674
1393.52  38.525  23.674
1394.02  38.589  23.705
1394.52  38.525  23.674
1395.02  38.525  23.705
1395.52  38.589  23.674
1396.02  38.525  23.705
1396.52  38.525  23.674
1397.02  38.589  23.705
1397.52  38.589  23.705
1398.02  38.717  23.674
1398.52  38.525  23.705
1399.02  38.525  23.674
1399.52  38.589  23.735
1400.02  38.589  23.735
1400.52  38.589  23.674
1401.02  38.589  23.705
1401.52  38.589  23.674
1402.02  38.589  23.705
1402.52  38.525  23.643
1403.02  38.589  23.643
1403.52  38.589  23.674
1404.02  38.525  23.674
1404.52  38.589  23.674
1405.02  38.589  23.643
1405.52  38.525  23.674
1406.02  38.525  23.674
1406.52  38.525  23.705
1407.02  38.525  23.705
1407.52  38.525  23.705
1408.02  38.525  23.705
1408.52  38.525  23.674
1409.02  38.589  23.674
1409.52  38.525  23.705
1410.02  38.589  23.705
1410.52  38.717  23.705
1411.02  38.653  23.643
1411.52  38.525  23.705
1412.02  38.589  23.643
1412.52  38.589  23.705
1413.02  38.589  23.674
1413.52  38.589  23.643
1414.02  38.589  23.705
1414.52  38.589  23.674
1415.02  38.589  23.643
1415.52  38.653  23.705
1416.03  38.589  23.705
1416.53  38.653  23.674
1417.03  38.589  23.674
1417.53  38.589  23.705
1418.03  38.589  23.705
1418.53  38.589  23.705
1419.03  38.589  23.705
1419.53  38.653  23.705
1420.03  38.525  23.705
1420.53  38.589  23.705
1421.03  38.653  23.705
1421.53  38.717  23.705
1422.03  38.653  23.705
1422.53  38.653  23.705
1423.03  38.653  23.705
1423.53  38.589  23.705
1424.03  38.653  23.705
1424.53  38.653  23.735
1425.03  38.589  23.674
1425.53  38.589  23.674
1426.03  38.589  23.705
1426.53  38.653  23.705
1427.03  38.525  23.674
1427.53  38.653  23.674
1428.03  38.589  23.705
1428.53  38.589  23.705
1429.03  38.653  23.705
1429.53  38.653  23.674
1430.03  38.653  23.705
1430.53  38.717  23.735
1431.03  38.717  23.705
1431.53  38.653  23.735
1432.03  38.653  23.705
1432.53  38.653  23.705
1433.03  38.717  23.735
1433.53  38.653  23.705
1434.03  38.589  23.705
1434.53  38.589  23.674
1435.03  38.653  23.705
1435.53  38.653  23.705
1436.03  38.653  23.705
1436.53  38.589  23.705
1437.03  38.653  23.735
1437.53  38.589  23.705
1438.03  38.653  23.705
1438.53  38.589  23.735
1439.03  38.653  23.735
1439.53  38.653  23.735
1440.03  38.717  23.705
1440.53  38.653  23.735
1441.03  38.653  23.705
1441.53  38.653  23.705
1442.03  38.589  23.705
1442.53  38.717  23.705
1443.03  38.717  23.674
1443.53  38.653  23.705
1444.03  38.653  23.705
1444.53  38.717  23.735
1445.03  38.717  23.705
1445.53  38.717  23.735
1446.03  38.653  23.705
1446.53  38.653  23.735
1447.03  38.589  23.735
1447.53  38.653  23.735
1448.03  38.653  23.674
1448.53  38.589  23.705
1449.03  38.653  23.735
1449.53  38.653  23.705
1450.03  38.653  23.705
1450.53  38.653  23.705
1451.03  38.717  23.705
1451.53  38.653  23.705
1452.03  38.717  23.674
1452.53  38.717  23.705
1453.03  38.653  23.705
1453.53  38.717  23.705
1454.03  38.717  23.705
1454.53  38.653  23.705
1455.03  38.653  23.705
1455.53  38.653  23.705
1456.03  38.653  23.766
1456.53  38.653  23.705
1457.03  38.717  23.735
1457.53  38.717  23.705
1458.03  38.589  23.705
1458.53  38.717  23.705
1459.03  38.717  23.735
1459.53  38.717  23.705
1460.03  38.717  23.705
1460.53  38.717  23.705
1461.03  38.653  23.705
1461.53  38.717  23.705
1462.03  38.717  23.705
1462.53  38.717  23.705
1463.03  38.717  23.674
1463.53  38.653  23.735
1464.03  38.653  23.705
1464.53  38.653  23.705
1465.03  38.653  23.705
1465.53  38.717  23.705
1466.03  38.717  23.735
1466.53  38.717  23.705
1467.03  38.653  23.705
1467.53  38.717  23.674
1468.03  38.653  23.705
1468.53  38.525  23.705
1469.03  38.717  23.705
1469.53  38.653  23.705
1470.03  38.653  23.705
1470.53  38.717  23.735
1471.03  38.717  23.705
1471.53  38.653  23.705
1472.03  38.717  23.705
1472.53  38.717  23.705
1473.03  38.717  23.735
1473.53  38.717  23.705
1474.03  38.653  23.735
1474.53  38.717  23.735
1475.03  38.781  23.674
1475.53  38.717  23.705
1476.03  38.653  23.674
1476.53  38.781  23.674
1477.03  38.589  23.735
1477.53  38.717  23.735
1478.03  38.717  23.674
1478.53  38.717  23.705
1479.03  38.781  23.735
1479.53  38.717  23.735
1480.03  38.717  23.705
1480.53  38.717  23.674
1481.03  38.781  23.705
1481.53  38.717  23.735
1482.03  38.781  23.735
1482.53  38.781  23.705
1483.03  38.717  23.705
1483.53  38.653  23.705
1484.03  38.781  23.766
1484.53  38.717  23.735
1485.03  38.781  23.705
1485.53  38.781  23.735
1486.03  38.717  23.735
1486.53  38.781  23.735
1487.03  38.653  23.705
1487.53  38.717  23.705
1488.03  38.781  23.735
1488.53  38.653  23.705
1489.03  38.781  23.735
1489.53  38.781  23.735
1490.03  38.653  23.735
1490.53  38.717  23.735
1491.03  38.717  23.735
1491.53  38.781  23.705
1492.03  38.717  23.705
1492.53  38.653  23.705
1493.03  38.717  23.674
1493.53  38.781  23.735
1494.03  38.717  23.705
1494.53  38.781  23.735
1495.03  38.717  23.705
1495.53  38.909  23.735
1496.03  38.781  23.735
1496.53  38.717  23.735
1497.03  38.781  23.766
1497.53  38.781  23.705
1498.03  38.845  23.735
1498.53  38.717  23.735
1499.03  38.781  23.735
1499.53  38.717  23.735
1500.03  38.717  23.735
1500.53  38.781  23.705
1501.03  38.781  23.735
1501.53  38.781  23.735
1502.03  38.781  23.705
1502.53  38.781  23.705
1503.03  38.781  23.705
1503.53  38.781  23.735
1504.03  38.717  23.735
1504.53  38.717  23.674
1505.03  38.717  23.735
1505.53  38.781  23.735
1506.03  38.845  23.735
1506.53  38.781  23.735
1507.03  38.781  23.766
1507.53  38.717  23.735
1508.03  38.781  23.735
1508.53  38.781  23.735
1509.03  38.781  23.735
1509.53  38.973  23.735
1510.03  38.781  23.735
1510.53  38.845  23.735
1511.03  38.781  23.735
1511.53  38.845  23.735
1512.03  38.717  23.735
1512.53  39.037  23.735
1513.03  38.717  23.735
1513.53  38.845  23.766
1514.03  38.781  23.766
1514.53  38.717  23.705
1515.03  38.653  23.705
1515.53  38.845  23.735
1516.03  38.845  23.797
1516.53  38.781  23.735
1517.03  38.781  23.735
1517.53  38.845  23.735
1518.03  38.845  23.735
1518.53  38.781  23.735
1519.03  38.845  23.735
1519.53  38.781  23.735
1520.03  38.653  23.735
1520.53  38.845  23.735
1521.03  38.717  23.735
1521.53  38.973  23.735
1522.03  38.845  23.766
1522.53  38.781  23.766
1523.03  38.717  23.735
1523.53  38.717  23.735
1524.03  38.845  23.735
1524.53  38.845  23.735
1525.03  38.781  23.766
1525.53  38.909  23.735
1526.03  38.781  23.735
1526.53  38.845  23.735
1527.03  38.845  23.735
1527.53  38.781  23.766
1528.03  38.781  23.797
1528.53  38.845  23.797
1529.03  38.845  23.735
1529.54  38.781  23.735
1530.04  38.717  23.735
1530.54  38.781  23.705
1531.04  38.781  23.705
1531.54  38.845  23.735
1532.04  38.845  23.735
1532.54  38.909  23.735
1533.04  38.781  23.735
1533.54  38.845  23.735
1534.04  38.845  23.705
1534.54  38.845  23.735
1535.04  38.845  23.735
1535.54  38.909  23.735
1536.04  38.845  23.735
1536.54  38.845  23.735
1537.04  38.845  23.735
1537.54  38.781  23.705
1538.04  38.781  23.735
1538.54  38.781  23.705
1539.04  38.781  23.766
1539.54  38.781  23.735
1540.04  38.845  23.735
1540.54  38.845  23.735
1541.04  38.845  23.735
1541.54  38.845  23.766
1542.04  38.781  23.735
1542.54  38.845  23.705
1543.04  38.845  23.735
1543.54  38.845  23.735
1544.04  38.909  23.705
1544.54  38.909  23.705
1545.04  38.717  23.735
1545.54  38.845  23.735
1546.04  38.909  23.797
1546.54  38.845  23.735
1547.04  38.845  23.766
1547.54  38.845  23.735
1548.04  38.781  23.735
1548.54  38.909  23.766
1549.04  38.845  23.766
1549.54  38.781  23.705
1550.04  38.845  23.735
1550.54  38.845  23.735
1551.04  38.845  23.735
1551.54  38.845  23.735
1552.04  38.845  23.766
1552.54  38.845  23.735
1553.04  38.845  23.735
1553.54  38.845  23.766
1554.04  38.845  23.766
1554.54  38.909  23.735
1555.04  38.845  23.766
1555.54  38.845  23.735
1556.04  38.845  23.797
1556.54  38.845  23.735
1557.04  38.909  23.705
1557.54  38.909  23.735
1558.04  38.909  23.766
1558.54  38.781  23.735
1559.04  38.909  23.828
1559.54  38.909  23.735
1560.04  38.909  23.705
1560.54  38.909  23.735
1561.04  38.909  23.735
1561.54  38.845  23.735
1562.04  38.845  23.735
1562.54  38.973  23.735
1563.04  38.845  23.735
1563.54  38.845  23.735
1564.04  38.909  23.735
1564.54  38.909  23.766
1565.04  38.909  23.766
1565.54  38.909  23.705
1566.04  38.845  23.766
1566.54  38.909  23.766
1567.04  38.909  23.766
1567.54  38.845  23.735
1568.04  38.845  23.766
1568.54  38.909  23.735
1569.04  38.909  23.735
1569.54  38.909  23.735
1570.04  38.909  23.735
1570.54  38.845  23.735
1571.04  38.845  23.705
1571.54  38.845  23.735
1572.04  38.909  23.735
1572.54  38.845  23.735
1573.04  38.909  23.735
1573.54  38.845  23.766
1574.04  38.909  23.766
1574.54  38.845  23.735
1575.04  38.845  23.735
1575.54  38.909  23.766
1576.04  38.845  23.735
1576.54  38.909  23.766
1577.04  38.909  23.766
1577.54  38.909  23.766
1578.04  38.909  23.735
1578.54  38.845  23.766
1579.04  38.909  23.766
1579.54  38.909  23.735
1580.04  38.973  23.766
1580.54  38.845  23.735
1581.04  38.845  23.735
1581.54  38.973  23.766
1582.04  38.973  23.735
1582.54  38.909  23.766
1583.04  38.845  23.766
1583.54  38.973  23.766
1584.04  38.909  23.735
1584.54  38.909  23.766
1585.04  38.909  23.766
1585.54  38.909  23.797
1586.04  38.909  23.735
1586.54  38.973  23.766
1587.04  38.845  23.797
1587.54  38.909  23.705
1588.04  38.781  23.735
1588.54  38.909  23.735
1589.04  38.909  23.766
1589.54  38.909  23.797
1590.04  38.909  23.766
1590.54  38.909  23.705
1591.04  38.909  23.735
1591.54  38.973  23.766
1592.04  38.973  23.797
1592.54  38.909  23.766
1593.04  38.909  23.766
1593.54  38.909  23.766
1594.04  39.037  23.766
1594.54  38.973  23.735
1595.04  38.909  23.766
1595.54  38.973  23.766
1596.04  38.909  23.735
1596.54  38.973  23.735
1597.04  38.909  23.735
1597.54  38.909  23.766
1598.04  38.909  23.766
1598.54  38.909  23.766
1599.04  38.973  23.766
1599.54  39.037  23.735
1600.04  38.973  23.766
1600.54  38.973  23.766
1601.04  38.909  23.735
1601.54  39.037  23.766
1602.04  38.845  23.766
1602.54  38.973  23.766
1603.04  38.973  23.766
1603.54  38.973  23.828
1604.04  38.973  23.766
1604.54  38.909  23.766
1605.04  38.973  23.766
1605.54  38.845  23.735
1606.04  38.973  23.735
1606.54  38.973  23.766
1607.04  38.845  23.766
1607.54  38.973  23.797
1608.04  38.909  23.766
1608.54  38.973  23.766
1609.04  38.973  23.828
1609.54  38.909  23.766
1610.04  38.973  23.766
1610.54  38.909  23.766
1611.04  38.973  23.735
1611.54  38.973  23.797
1612.04  38.973  23.766
1612.54  38.973  23.766
1613.04  38.973  23.766
1613.54  38.909  23.766
1614.04  38.973  23.797
1614.54  38.909  23.797
1615.04  39.037  23.766
1615.54  38.909  23.797
1616.04  38.909  23.766
1616.54  38.973  23.797
1617.04  38.973  23.797
1617.54  39.037  23.766
1618.04  39.037  23.797
1618.54  39.037  23.766
1619.04  38.973  23.766
1619.54  38.973  23.766
1620.04  39.037  23.797
1620.54  38.973  23.766
1621.04  38.973  23.766
1621.54  38.973  23.828
1622.04  38.909  23.766
1622.54  38.973  23.735
1623.04  38.973  23.828
1623.54  38.909  23.797
1624.04  38.909  23.766
1624.54  39.037  23.766
1625.04  38.909  23.735
1625.54  38.909  23.766
1626.04  38.973  23.766
1626.54  38.973  23.797
1627.04  38.973  23.705
1627.54  38.973  23.797
1628.04  38.973  23.766
1628.54  38.973  23.766
1629.04  38.909  23.766
1629.54  38.973  23.735
1630.04  38.973  23.859
1630.54  39.037  23.766
1631.04  39.037  23.735
1631.54  39.037  23.735
1632.04  38.973  23.797
1632.54  38.973  23.735
1633.04  38.973  23.766
1633.54  38.909  23.766
1634.04  38.909  23.766
1634.54  39.101  23.735
1635.04  38.973  23.766
1635.54  38.973  23.766
1636.04  38.973  23.766
1636.54  39.037  23.797
1637.04  38.973  23.766
1637.54  38.973  23.766
1638.04  38.973  23.766
1638.54  38.973  23.797
1639.04  38.973  23.766
1639.54  38.909  23.735
1640.04  38.973  23.797
1640.54  38.909  23.766
1641.04  38.973  23.797
1641.54  38.973  23.797
1642.04  38.909  23.797
1642.55  38.973  23.766
1643.05  39.037  23.797
1643.55  38.909  23.766
1644.05  38.973  23.766
1644.55  38.973  23.766
1645.05  38.973  23.766
1645.55  39.037  23.766
1646.05  39.037  23.797
1646.55  39.037  23.766
1647.05  38.973  23.797
1647.55  39.037  23.766
1648.05  39.037  23.766
1648.55  39.037  23.797
1649.05  38.973  23.766
1649.55  39.037  23.766
1650.05  39.037  23.766
1650.55  38.973  23.766
1651.05  38.973  23.797
1651.55  39.037  23.766
1652.05  39.037  23.766
1652.55  39.037  23.766
1653.05  39.037  23.797
1653.55  38.973  23.766
1654.05  39.037  23.766
1654.55  39.037  23.766
1655.05  39.037  23.766
1655.55  39.101  23.766
1656.05  38.973  23.797
1656.55  39.037  23.797
1657.05  39.037  23.797
1657.55  39.101  23.797
1658.05  39.037  23.766
1658.55  39.101  23.797
1659.05  39.037  23.797
1659.55  39.037  23.797
1660.05  39.101  23.828
1660.55  38.973  23.797
1661.05  39.037  23.735
1661.55  39.101  23.797
1662.05  38.973  23.766
1662.55  39.037  23.797
1663.05  38.973  23.797
1663.55  39.101  23.797
1664.05  39.037  23.766
1664.55  38.973  23.766
1665.05  39.037  23.766
1665.55  39.037  23.797
1666.05  38.973  23.797
1666.55  38.973  23.766
1667.05  39.037  23.766
1667.55  39.037  23.797
1668.05  39.037  23.797
1668.55  39.037  23.828
1669.05  39.165  23.766
1669.55  39.037  23.766
1670.05  39.037  23.766
1670.55  39.037  23.797
1671.05  39.037  23.766
1671.55  39.101  23.797
1672.05  39.037  23.766
1672.55  39.037  23.766
1673.05  39.101  23.766
1673.55  39.037  23.766
1674.05  39.037  23.797
1674.55  39.101  23.766
1675.05  39.101  23.797
1675.55  39.037  23.828
1676.05  39.037  23.797
1676.55  39.037  23.766
1677.05  38.973  23.766
1677.55  39.037  23.735
1678.05  39.165  23.797
1678.55  39.037  23.797
1679.05  39.037  23.797
1679.55  38.973  23.797
1680.05  39.037  23.766
1680.55  39.037  23.797
1681.05  39.101  23.797
1681.55  39.037  23.828
1682.05  39.101  23.797
1682.55  39.037  23.797
1683.05  39.037  23.828
1683.55  39.037  23.797
1684.05  39.037  23.797
1684.55  39.101  23.828
1685.05  39.101  23.766
1685.55  39.101  23.797
1686.05  39.165  23.797
1686.55  39.101  23.766
1687.05  39.101  23.797
1687.55  39.101  23.797
1688.05  39.037  23.766
1688.55  39.101  23.797
1689.05  39.037  23.766
1689.55  39.165  23.766
1690.05  39.101  23.797
1690.55  39.037  23.766
1691.05  39.037  23.735
1691.55  39.165  23.766
1692.05  39.101  23.797
1692.55  39.165  23.797
1693.05  38.973  23.766
1693.55  39.037  23.766
1694.05  39.101  23.797
1694.55  39.101  23.797
1695.05  39.101  23.797
1695.55  39.037  23.797
1696.05  39.101  23.797
1696.55  39.101  23.797
1697.05  39.101  23.797
1697.55  39.101  23.797
1698.05  39.101  23.797
1698.55  39.101  23.766
1699.05  39.165  23.766
1699.55  39.101  23.797
1700.05  39.101  23.735
1700.55  39.101  23.797
1701.05  39.037  23.766
1701.55  39.101  23.797
1702.05  38.973  23.797
1702.55  39.037  23.797
1703.05  39.101  23.797
1703.55  39.037  23.766
1704.05  39.101  23.766
1704.55  39.165  23.797
1705.05  39.101  23.797
1705.55  39.101  23.797
1706.05  39.101  23.797
1706.55  39.101  23.797
1707.05  39.101  23.766
1707.55  39.037  23.828
1708.05  39.101  23.797
1708.55  39.101  23.797
1709.05  39.101  23.766
1709.55  39.101  23.797
1710.05  39.165  23.797
1710.55  39.101  23.797
1711.05  39.037  23.766
1711.55  39.101  23.797
1712.05  39.101  23.797
1712.55  39.101  23.859
1713.05  39.037  23.797
1713.55  39.101  23.766
1714.05  39.165  23.859
1714.55  39.165  23.797
1715.05  39.165  23.797
1715.55  39.037  23.766
1716.05  39.101  23.797
1716.55  39.101  23.797
1717.05  39.101  23.797
1717.55  39.101  23.797
1718.05  39.101  23.797
1718.55  39.037  23.797
1719.05  39.101  23.766
1719.55  39.165  23.766
1720.05  39.101  23.828
1720.55  39.229  23.797
1721.05  39.101  23.766
1721.55  39.101  23.766
1722.05  39.101  23.766
1722.55  39.101  23.797
1723.05  39.165  23.828
1723.55  39.101  23.797
1724.05  39.165  23.797
1724.55  39.101  23.797
1725.05  39.165  23.797
1725.55  39.101  23.797
1726.05  39.101  23.797
1726.55  39.165  23.766
1727.05  38.973  23.828
1727.55  39.101  23.797
1728.05  39.101  23.766
1728.55  39.165  23.828
1729.05  39.101  23.797
1729.55  39.101  23.797
1730.05  39.101  23.797
1730.55  39.101  23.797
1731.05  39.165  23.828
1731.55  39.165  23.797
1732.05  39.165  23.828
1732.55  39.101  23.797
1733.05  39.101  23.766
1733.55  39.165  23.797
1734.05  39.101  23.828
1734.55  39.165  23.797
1735.05  39.101  23.797
1735.55  39.229  23.797
1736.05  39.165  23.797
1736.55  39.165  23.828
1737.05  39.101  23.797
1737.55  39.229  23.797
1738.05  39.165  23.797
1738.55  39.101  23.859
1739.05  39.101  23.828
1739.55  39.165  23.797
1740.05  39.229  23.797
1740.55  39.229  23.828
1741.05  39.229  23.797
1741.55  39.101  23.828
1742.05  39.165  23.797
1742.55  39.165  23.797
1743.05  39.165  23.797
1743.55  39.165  23.828
1744.05  39.165  23.828
1744.55  39.165  23.828
1745.05  39.165  23.797
1745.55  39.101  23.797
1746.05  39.293  23.797
1746.55  39.165  23.797
1747.05  39.101  23.766
1747.55  39.165  23.797
1748.05  39.165  23.797
1748.55  39.165  23.797
1749.05  39.101  23.797
1749.55  39.229  23.797
1750.05  39.165  23.766
1750.55  39.229  23.797
1751.05  39.165  23.735
1751.55  39.229  23.828
1752.05  39.165  23.797
1752.55  39.293  23.828
1753.05  39.101  23.828
1753.55  39.101  23.828
1754.05  39.165  23.797
1754.55  39.165  23.797
1755.05  39.165  23.828
1755.56  39.101  23.766
1756.06  39.293  23.828
1756.56  39.229  23.766
1757.06  39.165  23.797
1757.56  39.229  23.797
1758.06  39.165  23.859
1758.56  39.165  23.797
1759.06  39.165  23.766
1759.56  39.165  23.797
1760.06  39.165  23.797
1760.56  39.229  23.828
1761.06  39.229  23.797
1761.56  39.229  23.828
1762.06  39.229  23.797
1762.56  39.165  23.828
1763.06  39.293  23.828
1763.56  39.165  23.797
1764.06  39.165  23.828
1764.56  39.101  23.828
1765.06  39.101  23.828
1765.56  39.229  23.828
1766.06  39.165  23.797
1766.56  39.229  23.797
1767.06  39.229  23.828
1767.56  39.101  23.828
1768.06  39.101  23.797
1768.56  39.165  23.797
1769.06  39.165  23.797
1769.56  39.357  23.797
1770.06  39.229  23.797
1770.56  39.229  23.828
1771.06  39.165  23.828
1771.56  39.229  23.828
1772.06  39.165  23.828
1772.56  39.165  23.797
1773.06  39.229  23.859
1773.56  39.293  23.797
1774.06  39.165  23.859
1774.56  39.229  23.797
1775.06  39.165  23.828
1775.56  39.293  23.797
1776.06  39.229  23.828
1776.56  39.229  23.828
1777.06  39.165  23.797
1777.56  39.229  23.828
1778.06  39.229  23.859
1778.56  39.229  23.828
1779.06  39.229  23.828
1779.56  39.101  23.828
1780.06  39.229  23.828
1780.56  39.229  23.828
1781.06  39.165  23.828
1781.56  39.229  23.797
1782.06  39.165  23.828
1782.56  39.229  23.828
1783.06  39.229  23.797
1783.56  39.165  23.797
1784.06  39.229  23.828
1784.56  39.229  23.828
1785.06  39.229  23.828
1785.56  39.229  23.828
1786.06  39.229  23.828
1786.56  39.229  23.766
1787.06  39.165  23.828
1787.56  39.229  23.797
1788.06  39.229  23.828
1788.56  39.229  23.797
1789.06  39.229  23.828
1789.56  39.229  23.797
1790.06  39.229  23.797
1790.56  39.165  23.797
1791.06  39.229  23.828
1791.56  39.165  23.797
1792.06  39.293  23.797
1792.56  39.293  23.828
1793.06  39.229  23.828
1793.56  39.229  23.828
1794.06  39.165  23.828
1794.56  39.229  23.797
1795.06  39.229  23.828
1795.56  39.229  23.797
1796.06  39.165  23.797
1796.56  39.293  23.797
1797.06  39.229  23.828
1797.56  39.165  23.828
1798.06  39.229  23.859
1798.56  39.229  23.828
1799.06  39.293  23.859
1799.56  39.293  23.828
1800.06  39.293  23.828
1800.56  39.293  23.797
1801.06  39.293  23.828
1801.56  39.293  23.766
1802.06  39.229  23.828
1802.56  39.165  23.828
1803.06  39.421  23.828
1803.56  39.229  23.797
1804.06  39.165  23.828
1804.56  39.293  23.859
1805.06  39.229  23.797
1805.56  39.229  23.797
1806.06  39.293  23.828
1806.56  39.229  23.828
1807.06  39.293  23.797
1807.56  39.293  23.828
1808.06  39.229  23.797
1808.56  39.293  23.797
1809.06  39.293  23.859
1809.56  39.293  23.828
1810.06  39.421  23.828
1810.56  39.293  23.828
1811.06  39.229  23.828
1811.56  39.229  23.828
1812.06  39.229  23.859
1812.56  39.165  23.797
1813.06  39.165  23.828
1813.56  39.293  23.859
1814.06  39.293  23.859
1814.56  39.293  23.797
1815.06  39.229  23.889
1815.56  39.293  23.859
1816.06  39.293  23.859
1816.56  39.229  23.828
1817.06  39.293  23.828
1817.56  39.229  23.828
1818.06  39.229  23.828
1818.56  39.293  23.828
1819.06  39.293  23.828
1819.56  39.357  23.828
1820.06  39.293  23.828
1820.56  39.229  23.889
1821.06  39.229  23.859
1821.56  39.293  23.828
1822.06  39.293  23.828
1822.56  39.293  23.859
1823.06  39.293  23.828
1823.56  39.293  23.828
1824.06  39.357  23.828
1824.56  39.357  23.859
1825.06  39.293  23.828
1825.56  39.293  23.859
1826.06  39.229  23.828
1826.56  39.229  23.828
1827.06  39.229  23.797
1827.56  39.229  23.828
1828.06  39.293  23.828
1828.56  39.293  23.828
1829.06  39.293  23.797
1829.56  39.293  23.828
1830.06  39.357  23.859
1830.56  39.293  23.828
1831.06  39.229  23.828
1831.56  39.293  23.828
1832.06  39.293  23.828
1832.56  39.357  23.828
1833.06  39.229  23.859
1833.56  39.293  23.828
1834.06  39.293  23.859
1834.56  39.293  23.828
1835.06  39.229  23.828
1835.56  39.357  23.828
1836.06  39.293  23.859
1836.56  39.293  23.828
1837.06  39.357  23.797
1837.56  39.357  23.797
1838.06  39.293  23.828
1838.56  39.293  23.828
1839.06  39.229  23.828
1839.56  39.293  23.828
1840.06  39.357  23.859
1840.56  39.229  23.859
1841.06  39.293  23.828
1841.56  39.293  23.828
1842.06  39.293  23.828
1842.56  39.421  23.828
1843.06  39.293  23.859
1843.56  39.357  23.828
1844.06  39.293  23.828
1844.56  39.357  23.859
1845.06  39.293  23.828
1845.56  39.357  23.859
1846.06  39.293  23.828
1846.56  39.357  23.859
1847.06  39.293  23.859
1847.56  39.293  23.828
1848.06  39.293  23.828
1848.56  39.293  23.797
1849.06  39.293  23.859
1849.56  39.293  23.828
1850.06  39.293  23.828
1850.56  39.293  23.859
1851.06  39.293  23.828
1851.56  39.357  23.797
1852.06  39.293  23.797
1852.56  39.229  23.797
1853.06  39.293  23.797
1853.56  39.293  23.797
1854.06  39.229  23.828
1854.56  39.293  23.859
1855.06  39.357  23.797
1855.56  39.293  23.828
1856.06  39.357  23.828
1856.56  39.293  23.828
1857.06  39.357  23.828
1857.56  39.293  23.828
1858.06  39.357  23.859
1858.56  39.229  23.828
1859.06  39.357  23.828
1859.56  39.293  23.828
1860.06  39.357  23.797
1860.56  39.293  23.828
1861.06  39.357  23.828
1861.56  39.293  23.859
1862.06  39.357  23.828
1862.56  39.485  23.828
1863.06  39.357  23.828
1863.56  39.357  23.828
1864.06  39.421  23.828
1864.56  39.357  23.889
1865.06  39.293  23.828
1865.56  39.229  23.797
1866.06  39.293  23.828
1866.56  39.357  23.828
1867.06  39.229  23.828
1867.56  39.293  23.828
1868.06  39.357  23.828
1868.56  39.229  23.859
1869.07  39.293  23.859
1869.57  39.293  23.859
1870.07  39.357  23.797
1870.57  39.357  23.889
1871.07  39.293  23.828
1871.57  39.293  23.889
1872.07  39.293  23.859
1872.57  39.421  23.859
1873.07  39.357  23.828
1873.57  39.293  23.889
1874.07  39.421  23.828
1874.57  39.229  23.859
1875.07  39.293  23.859
1875.57  39.357  23.859
1876.07  39.293  23.828
1876.57  39.421  23.859
1877.07  39.357  23.859
1877.57  39.229  23.859
1878.07  39.357  23.859
1878.57  39.357  23.859
1879.07  39.357  23.889
1879.57  39.293  23.797
1880.07  39.357  23.859
1880.57  39.357  23.859
1881.07  39.357  23.859
1881.57  39.357  23.859
1882.07  39.357  23.859
1882.57  39.357  23.828
1883.07  39.357  23.859
1883.57  39.293  23.828
1884.07  39.357  23.828
1884.57  39.357  23.859
1885.07  39.357  23.889
1885.57  39.293  23.889
1886.07  39.357  23.828
1886.57  39.357  23.859
1887.07  39.421  23.889
1887.57  39.293  23.889
1888.07  39.357  23.859
1888.57  39.165  23.859
1889.07  39.357  23.859
1889.57  39.357  23.859
1890.07  39.357  23.859
1890.57  39.293  23.828
1891.07  39.357  23.828
1891.57  39.357  23.828
1892.07  39.357  23.828
1892.57  39.421  23.859
1893.07  39.357  23.828
1893.57  39.357  23.859
1894.07  39.357  23.859
1894.57  39.293  23.859
1895.07  39.357  23.859
1895.57  39.357  23.859
1896.07  39.421  23.859
1896.57  39.421  23.859
1897.07  39.357  23.859
1897.57  39.357  23.859
1898.07  39.421  23.859
1898.57  39.357  23.859
1899.07  39.357  23.859
1899.57  39.421  23.828
1900.07  39.357  23.859
1900.57  39.357  23.859
1901.07  39.421  23.859
1901.57  39.357  23.859
1902.07  39.357  23.859
1902.57  39.421  23.889
1903.07  39.357  23.889
1903.57  39.357  23.859
1904.07  39.421  23.828
1904.57  39.357  23.859
1905.07  39.357  23.859
1905.57  39.421  23.859
1906.07  39.421  23.828
1906.57  39.357  23.828
1907.07  39.357  23.859
1907.57  39.421  23.859
1908.07  39.357  23.859
1908.57  39.357  23.889
1909.07  39.421  23.889
1909.57  39.421  23.859
1910.07  39.421  23.859
1910.57  39.421  23.828
1911.07  39.357  23.859
1911.57  39.357  23.859
1912.07  39.485  23.859
1912.57  39.421  23.797
1913.07  39.357  23.920
1913.57  39.421  23.920
1914.07  39.421  23.859
1914.57  39.421  23.889
1915.07  39.357  23.859
1915.57  39.357  23.828
1916.07  39.357  23.859
1916.57  39.421  23.889
1917.07  39.421  23.859
1917.57  39.421  23.889
1918.07  39.485  23.859
1918.57  39.421  23.859
1919.07  39.421  23.859
1919.57  39.421  23.859
1920.07  39.357  23.859
1920.57  39.421  23.859
1921.07  39.421  23.889
1921.57  39.421  23.859
1922.07  39.421  23.859
1922.57  39.421  23.859
1923.07  39.421  23.828
1923.57  39.485  23.889
1924.07  39.485  23.859
1924.57  39.485  23.828
1925.07  39.421  23.889
1925.57  39.485  23.920
1926.07  39.421  23.859
1926.57  39.421  23.859
1927.07  39.421  23.859
1927.57  39.421  23.859
1928.07  39.421  23.859
1928.57  39.421  23.859
1929.07  39.421  23.828
1929.57  39.549  23.859
1930.07  39.421  23.859
1930.57  39.485  23.859
1931.07  39.485  23.859
1931.57  39.485  23.859
1932.07  39.421  23.889
1932.57  39.485  23.859
1933.07  39.421  23.920
1933.57  39.485  23.859
1934.07  39.421  23.889
1934.57  39.421  23.889
1935.07  39.485  23.859
1935.57  39.485  23.859
1936.07  39.421  23.859
1936.57  39.421  23.889
1937.07  39.357  23.859
1937.57  39.549  23.859
1938.07  39.421  23.889
1938.57  39.485  23.859
1939.07  39.421  23.889
1939.57  39.485  23.859
1940.07  39.421  23.859
1940.57  39.421  23.889
1941.07  39.485  23.859
1941.57  39.421  23.859
1942.07  39.421  23.889
1942.57  39.421  23.828
1943.07  39.421  23.859
1943.57  39.485  23.889
1944.07  39.485  23.859
1944.57  39.549  23.889
1945.07  39.485  23.859
1945.57  39.293  23.859
1946.07  39.485  23.889
1946.57  39.421  23.889
1947.07  39.421  23.859
1947.57  39.485  23.889
1948.07  39.485  23.889
1948.57  39.421  23.889
1949.07  39.421  23.859
1949.57  39.485  23.889
1950.07  39.549  23.859
1950.57  39.485  23.889
1951.07  39.421  23.859
1951.57  39.421  23.859
1952.07  39.485  23.828
1952.57  39.421  23.859
1953.07  39.421  23.889
1953.57  39.485  23.859
1954.07  39.485  23.859
1954.57  39.421  23.920
1955.07  39.485  23.859
1955.57  39.421  23.889
1956.07  39.485  23.889
1956.57  39.421  23.828
1957.07  39.485  23.889
1957.57  39.421  23.859
1958.07  39.485  23.889
1958.57  39.421  23.859
1959.07  39.421  23.889
1959.57  39.485  23.859
1960.07  39.485  23.859
1960.57  39.485  23.889
1961.07  39.613  23.889
1961.57  39.421  23.889
1962.07  39.485  23.889
1962.57  39.485  23.889
1963.07  39.357  23.889
1963.57  39.485  23.889
1964.07  39.485  23.889
1964.57  39.421  23.859
1965.07  39.485  23.859
1965.57  39.421  23.859
1966.07  39.485  23.889
1966.57  39.485  23.889
1967.07  39.485  23.889
1967.57  39.421  23.859
1968.07  39.485  23.859
1968.57  39.485  23.859
1969.07  39.549  23.889
1969.57  39.421  23.859
1970.07  39.485  23.889
1970.57  39.485  23.889
1971.07  39.485  23.889
1971.57  39.485  23.889
1972.07  39.421  23.920
1972.57  39.485  23.889
1973.07  39.613  23.920
1973.57  39.549  23.828
1974.07  39.485  23.859
1974.57  39.421  23.889
1975.07  39.549  23.889
1975.57  39.485  23.889
1976.07  39.421  23.889
1976.57  39.421  23.889
1977.07  39.421  23.889
1977.57  39.421  23.920
1978.07  39.485  23.889
1978.57  39.485  23.859
1979.07  39.421  23.828
1979.57  39.485  23.859
1980.07  39.485  23.889
1980.57  39.421  23.889
1981.07  39.421  23.859
1981.57  39.421  23.859
1982.08  39.421  23.889
1982.58  39.485  23.889
1983.08  39.357  23.889
1983.58  39.357  23.889
1984.08  39.485  23.889
1984.58  39.421  23.889
1985.08  39.357  23.889
1985.58  39.357  23.859
1986.08  39.421  23.889
1986.58  39.485  23.859
1987.08  39.485  23.889
1987.58  39.421  23.859
1988.08  39.357  23.859
1988.58  39.357  23.859
1989.08  39.357  23.859
1989.58  39.421  23.859
1990.08  39.421  23.859
1990.58  39.421  23.889
1991.08  39.485  23.859
1991.58  39.421  23.889
1992.08  39.421  23.859
1992.58  39.485  23.889
1993.08  39.549  23.889
1993.58  39.421  23.889
1994.08  39.421  23.920
1994.58  39.421  23.859
1995.08  39.357  23.889
1995.58  39.421  23.889
1996.08  39.485  23.859
1996.58  39.421  23.889
1997.08  39.485  23.889
1997.58  39.421  23.889
1998.08  39.357  23.889
1998.58  39.421  23.889
1999.08  39.421  23.859
1999.58  39.485  23.889
2000.08  39.485  23.889
2000.58  39.421  23.889
2001.08  39.485  23.889
2001.58  39.421  23.889
2002.08  39.421  23.889
2002.58  39.485  23.889
2003.08  39.485  23.920
2003.58  39.421  23.889
2004.08  39.485  23.889
2004.58  39.485  23.859
2005.08  39.485  23.889
2005.58  39.549  23.889
2006.08  39.485  23.920
2006.58  39.421  23.859
2007.08  39.485  23.920
2007.58  39.485  23.920
2008.08  39.421  23.859
2008.58  39.485  23.889
2009.08  39.485  23.889
2009.58  39.421  23.889
2010.08  39.485  23.889
2010.58  39.421  23.889
2011.08  39.421  23.920
2011.58  39.357  23.889
2012.08  39.421  23.889
2012.58  39.485  23.889
2013.08  39.421  23.889
2013.58  39.485  23.920
2014.08  39.485  23.889
2014.58  39.485  23.889
2015.08  39.485  23.889
2015.58  39.421  23.920
2016.08  39.485  23.889
2016.58  39.421  23.859
2017.08  39.357  23.920
2017.58  39.485  23.889
2018.08  39.485  23.889
2018.58  39.485  23.920
2019.08  39.357  23.859
2019.58  39.485  23.920
2020.08  39.485  23.889
2020.58  39.485  23.920
2021.08  39.485  23.889
2021.58  39.485  23.889
2022.08  39.485  23.920
2022.58  39.485  23.982
2023.08  39.485  23.889
2023.58  39.485  23.889
2024.08  39.485  23.859
2024.58  39.485  23.889
2025.08  39.485  23.920
2025.58  39.485  23.920
2026.08  39.421  23.889
2026.58  39.485  23.889
2027.08  39.485  23.859
2027.58  39.677  23.889
2028.08  39.485  23.859
2028.58  39.485  23.859
2029.08  39.485  23.859
2029.58  39.485  23.889
2030.08  39.485  23.920
2030.58  39.485  23.920
2031.08  39.485  23.889
2031.58  39.485  23.889
2032.08  39.485  23.889
2032.58  39.485  23.889
2033.08  39.549  23.920
2033.58  39.485  23.920
2034.08  39.421  23.889
2034.58  39.421  23.889
2035.08  39.485  23.951
2035.58  39.485  23.889
2036.08  39.485  23.889
2036.58  39.485  23.859
2037.08  39.421  23.889
2037.58  39.485  23.889
2038.08  39.421  23.889
2038.58  39.485  23.889
2039.08  39.549  23.889
2039.58  39.485  23.889
2040.08  39.549  23.889
2040.58  39.421  23.889
2041.08  39.485  23.920
2041.58  39.485  23.859
2042.08  39.485  23.889
2042.58  39.485  23.889
2043.08  39.485  23.889
2043.58  39.421  23.889
2044.08  39.485  23.889
2044.58  39.421  23.889
2045.08  39.485  23.889
2045.58  39.485  23.920
2046.08  39.485  23.889
2046.58  39.485  23.889
2047.08  39.485  23.920
2047.58  39.485  23.859
2048.08  39.421  23.920
2048.58  39.485  23.889
2049.08  39.485  23.920
2049.58  39.549  23.889
2050.08  39.485  23.920
2050.58  39.485  23.889
2051.08  39.485  23.889
2051.58  39.421  23.889
2052.08  39.485  23.889
2052.58  39.485  23.889
2053.08  39.485  23.889
2053.58  39.485  23.889
2054.08  39.485  23.920
2054.58  39.421  23.951
2055.08  39.485  23.920
2055.58  39.549  23.889
2056.08  39.549  23.889
2056.58  39.485  23.889
2057.08  39.485  23.920
2057.58  39.485  23.920
2058.08  39.485  23.889
2058.58  39.485  23.920
2059.08  39.485  23.859
2059.58  39.549  23.859
2060.08  39.549  23.889
2060.58  39.485  23.859
2061.08  39.485  23.951
2061.58  39.485  23.859
2062.08  39.485  23.920
2062.58  39.549  23.920
2063.08  39.421  23.951
2063.58  39.485  23.859
2064.08  39.421  23.889
2064.58  39.485  23.920
2065.08  39.549  23.889
2065.58  39.485  23.859
2066.08  39.485  23.920
2066.58  39.549  23.889
2067.08  39.485  23.889
2067.58  39.485  23.889
2068.08  39.549  23.889
2068.58  39.549  23.889
2069.08  39.485  23.889
2069.58  39.549  23.859
2070.08  39.485  23.920
2070.58  39.485  23.889
2071.08  39.485  23.920
2071.58  39.549  23.920
2072.08  39.485  23.889
2072.58  39.485  23.920
2073.08  39.485  23.951
2073.58  39.485  23.889
2074.08  39.549  23.920
2074.58  39.485  23.920
2075.08  39.549  23.920
2075.58  39.485  23.920
2076.08  39.549  23.889
2076.58  39.549  23.951
2077.08  39.549  23.982
2077.58  39.549  23.951
2078.08  39.549  23.920
2078.58  39.485  23.889
2079.08  39.549  23.920
2079.58  39.549  23.889
2080.08  39.485  23.920
2080.58  39.485  23.920
2081.08  39.549  23.920
2081.58  39.485  23.920
2082.08  39.549  23.920
2082.58  39.549  23.920
2083.08  39.549  23.920
2083.58  39.549  23.951
2084.08  39.549  23.889
2084.58  39.485  23.920
2085.08  39.549  23.920
2085.58  39.549  23.889
2086.08  39.549  23.889
2086.58  39.549  23.920
2087.08  39.485  23.920
2087.58  39.485  23.889
2088.08  39.549  23.889
2088.58  39.549  23.920
2089.08  39.485  23.920
2089.58  39.485  23.889
2090.08  39.549  23.889
2090.58  39.549  23.920
2091.08  39.549  23.920
2091.58  39.485  23.920
2092.08  39.549  23.889
2092.58  39.613  23.889
2093.08  39.549  23.920
2093.58  39.549  23.920
2094.08  39.549  23.920
2094.58  39.549  23.889
2095.09  39.549  23.920
2095.59  39.549  23.920
2096.09  39.485  23.920
2096.59  39.549  23.920
2097.09  39.613  23.920
2097.59  39.549  23.920
2098.09  39.485  23.889
2098.59  39.549  23.920
2099.09  39.549  23.920
2099.59  39.549  23.889
2100.09  39.549  23.920
2100.59  39.549  23.920
2101.09  39.549  23.920
2101.59  39.549  23.920
2102.09  39.549  23.920
2102.59  39.549  23.920
2103.09  39.549  23.889
2103.59  39.549  23.859
2104.09  39.613  23.920
2104.59  39.485  23.920
2105.09  39.549  23.920
2105.59  39.549  23.951
2106.09  39.485  23.920
2106.59  39.485  23.920
2107.09  39.613  23.951
2107.59  39.549  23.920
2108.09  39.549  23.920
2108.59  39.549  23.920
2109.09  39.613  23.889
2109.59  39.613  23.951
2110.09  39.549  23.920
2110.59  39.549  23.920
2111.09  39.549  23.920
2111.59  39.549  23.920
2112.09  39.549  23.920
2112.59  39.549  23.920
2113.09  39.549  23.951
2113.59  39.549  23.920
2114.09  39.549  23.920
2114.59  39.549  23.889
2115.09  39.613  23.889
2115.59  39.613  23.920
2116.09  39.549  23.920
2116.59  39.613  23.920
2117.09  39.613  23.951
2117.59  39.549  23.920
2118.09  39.549  23.951
2118.59  39.613  23.920
2119.09  39.613  23.920
2119.59  39.549  23.920
2120.09  39.613  23.920
2120.59  39.613  23.889
2121.09  39.549  23.920
2121.59  39.549  23.920
2122.09  39.613  23.859
2122.59  39.549  23.951
2123.09  39.549  23.951
2123.59  39.613  23.889
2124.09  39.549  23.951
2124.59  39.549  23.920
2125.09  39.613  23.920
2125.59  39.613  23.920
2126.09  39.549  23.920
2126.59  39.613  23.889
2127.09  39.613  23.951
2127.59  39.549  23.920
2128.09  39.549  23.951
2128.59  39.549  23.920
2129.09  39.613  23.951
2129.59  39.549  23.889
2130.09  39.613  23.951
2130.59  39.613  23.920
2131.09  39.613  23.920
2131.59  39.613  23.920
2132.09  39.549  23.889
2132.59  39.549  23.920
2133.09  39.549  23.920
2133.59  39.549  23.920
2134.09  39.613  23.920
2134.59  39.613  23.920
2135.09  39.613  23.951
2135.59  39.677  23.920
2136.09  39.613  23.951
2136.59  39.613  23.920
2137.09  39.613  23.951
2137.59  39.613  24.013
2138.09  39.613  23.951
2138.59  39.613  23.920
2139.09  39.613  23.920
2139.59  39.613  23.951
2140.09  39.613  23.982
2140.59  39.677  23.951
2141.09  39.549  23.889
2141.59  39.549  23.920
2142.09  39.677  23.951
2142.59  39.613  23.951
2143.09  39.613  23.920
2143.59  39.613  23.920
2144.09  39.613  23.920
2144.59  39.613  23.920
2145.09  39.549  23.951
2145.59  39.613  23.889
2146.09  39.549  23.951
2146.59  39.613  23.920
2147.09  39.677  23.951
2147.59  39.613  23.951
2148.09  39.613  23.920
2148.59  39.613  23.951
2149.09  39.613  23.951
2149.59  39.549  23.951
2150.09  39.613  23.951
2150.59  39.677  23.951
2151.09  39.613  23.951
2151.59  39.613  23.920
2152.09  39.613  23.920
2152.59  39.613  23.920
2153.09  39.613  23.889
2153.59  39.677  23.951
2154.09  39.741  23.920
2154.59  39.613  23.920
2155.09  39.613  23.920
2155.59  39.485  23.951
2156.09  39.549  23.920
2156.59  39.613  23.889
2157.09  39.549  23.951
2157.59  39.613  23.951
2158.09  39.613  23.889
2158.59  39.613  23.920
2159.09  39.549  23.920
2159.59  39.613  23.920
2160.09  39.549  23.920
2160.59  39.613  23.920
2161.09  39.613  23.951
2161.59  39.613  24.013
2162.09  39.613  23.920
2162.59  39.613  23.951
2163.09  39.613  23.859
2163.59  39.613  23.920
2164.09  39.613  23.920
2164.59  39.613  23.920
2165.09  39.613  23.889
2165.59  39.549  23.920
2166.09  39.677  23.982
2166.59  39.613  23.951
2167.09  39.613  23.951
2167.59  39.677  23.920
2168.09  39.549  23.920
2168.59  39.549  23.951
2169.09  39.613  23.982
2169.59  39.613  23.982
2170.09  39.549  23.920
2170.59  39.677  23.951
2171.09  39.485  23.920
2171.59  39.741  23.951
2172.09  39.613  23.951
2172.59  39.549  23.951
2173.09  39.613  23.951
2173.59  39.613  23.920
2174.09  39.613  23.951
2174.59  39.613  23.951
2175.09  39.613  23.920
2175.59  39.741  23.951
2176.09  39.613  23.951
2176.59  39.677  23.951
2177.09  39.613  23.982
2177.59  39.741  23.951
2178.09  39.613  23.951
2178.59  39.549  23.920
2179.09  39.613  23.951
2179.59  39.677  23.920
2180.09  39.677  23.951
2180.59  39.549  23.951
2181.09  39.677  23.951
2181.59  39.677  23.951
2182.09  39.613  23.920
2182.59  39.613  23.951
2183.09  39.613  23.951
2183.59  39.677  23.951
2184.09  39.677  23.951
2184.59  39.677  23.951
2185.09  39.677  23.982
2185.59  39.677  23.982
2186.09  39.613  23.920
2186.59  39.613  23.920
2187.09  39.549  23.920
2187.59  39.613  23.920
2188.09  39.613  23.920
2188.59  39.613  23.920
2189.09  39.613  23.920
2189.59  39.613  23.951
2190.09  39.741  23.889
2190.59  39.677  23.920
2191.09  39.677  23.951
2191.59  39.805  23.982
2192.09  39.677  23.951
2192.59  39.741  23.982
2193.09  39.677  23.951
2193.59  39.741  23.982
2194.09  39.677  23.951
2194.59  39.613  23.920
2195.09  39.677  23.951
2195.59  39.677  23.920
2196.09  39.677  23.951
2196.59  39.741  23.920
2197.09  39.741  23.951
2197.59  39.677  23.920
2198.09  39.677  23.951
2198.59  39.677  23.951
2199.09  39.677  23.920
2199.59  39.677  23.920
2200.09  39.741  23.951
2200.59  39.677  23.920
2201.09  39.677  23.920
2201.59  39.613  23.951
2202.09  39.613  23.951
2202.59  39.677  23.920
2203.09  39.677  23.951
2203.59  39.805  23.951
2204.09  39.677  23.920
2204.59  39.741  23.951
2205.09  39.613  23.951
2205.59  39.677  23.951
2206.09  39.741  23.920
2206.59  39.677  23.920
2207.09  39.613  23.951
2207.59  39.677  23.951
2208.09  39.613  23.951
2208.59  39.677  24.013
2209.09  39.677  23.951
2209.59  39.677  23.951
2210.09  39.677  23.920
2210.59  39.613  23.889
2211.09  39.677  23.982
2211.59  39.741  23.982
2212.09  39.677  23.951
2212.59  39.677  23.982
2213.09  39.677  23.951
2213.59  39.677  23.920
2214.09  39.677  23.951
2214.59  39.677  23.951
2215.09  39.677  23.982
2215.59  39.677  23.951
2216.09  39.741  23.920
2216.59  39.677  23.951
2217.09  39.677  23.951
2217.59  39.677  23.951
2218.09  39.677  23.982
2218.59  39.741  23.889
2219.10  39.741  23.920
2219.60  39.677  23.982
2220.10  39.677  23.982
2220.60  39.677  23.951
2221.10  39.613  23.951
2221.60  39.613  23.951
2222.10  39.677  23.951
2222.60  39.613  23.982
2223.10  39.677  23.951
2223.60  39.677  23.951
2224.10  39.677  23.920
2224.60  39.677  23.920
2225.10  39.613  23.951
2225.60  39.741  23.982
2226.10  39.805  23.920
2226.60  39.805  23.951
2227.10  39.677  23.951
2227.60  39.677  24.013
2228.10  39.613  23.982
2228.60  39.677  23.982
2229.10  39.677  23.982
2229.60  39.741  23.920
2230.10  39.741  23.951
2230.60  39.805  23.951
2231.10  39.677  23.951
2231.60  39.741  23.920
2232.10  39.613  23.951
2232.60  39.741  23.951
2233.10  39.677  23.951
2233.60  39.677  23.951
2234.10  39.677  23.951
2234.60  39.677  23.982
2235.10  39.677  23.920
2235.60  39.677  23.951
2236.10  39.741  23.951
2236.60  39.677  23.951
2237.10  39.805  23.951
2237.60  39.677  23.982
2238.10  39.677  23.920
2238.60  39.677  23.951
2239.10  39.805  23.920
2239.60  39.741  23.951
2240.10  39.741  23.951
2240.60  39.677  23.920
2241.10  39.805  23.951
2241.60  39.741  23.951
2242.10  39.741  23.951
2242.60  39.613  23.951
2243.10  39.741  23.951
2243.60  39.741  23.951
2244.10  39.677  23.951
2244.60  39.741  23.889
2245.10  39.549  23.982
2245.60  39.677  23.951
2246.10  39.741  23.951
2246.60  39.677  23.951
2247.10  39.677  23.951
2247.60  39.677  23.951
2248.10  39.805  23.951
2248.60  39.741  23.951
2249.10  39.677  23.982
2249.60  39.741  23.951
2250.10  39.677  23.982
2250.60  39.677  23.920
2251.10  39.741  23.951
2251.60  39.613  23.951
2252.10  39.741  23.951
2252.60  39.869  23.951
2253.10  39.741  23.982
2253.60  39.805  24.013
2254.10  39.741  23.982
2254.60  39.677  23.920
2255.10  39.805  23.920
2255.60  39.741  23.982
2256.10  39.613  23.951
2256.60  39.805  24.013
2257.10  39.741  23.951
2257.60  39.677  23.982
2258.10  39.741  23.982
2258.60  39.741  23.951
2259.10  39.741  23.982
2259.60  39.805  23.951
2260.10  39.677  23.920
2260.60  39.741  23.951
2261.10  39.805  23.951
2261.60  39.677  23.982
2262.10  39.741  23.951
2262.60  39.741  23.951
2263.10  39.741  23.982
2263.60  39.805  23.982
2264.10  39.741  23.982
2264.60  39.677  23.982
2265.10  39.805  23.951
2265.60  39.869  23.951
2266.10  39.741  23.951
2266.60  39.741  23.951
2267.10  39.677  23.982
2267.60  39.805  23.982
2268.10  39.677  23.951
2268.60  39.805  23.951
2269.10  39.805  23.982
2269.60  39.741  23.982
2270.10  39.805  23.982
2270.60  39.741  23.982
2271.10  39.805  23.982
2271.60  39.805  23.982
2272.10  39.805  23.982
2272.60  39.677  23.951
2273.10  39.805  23.951
2273.60  39.805  23.982
2274.10  39.741  24.013
2274.60  39.677  23.982
2275.10  39.741  23.982
2275.60  39.741  23.951
2276.10  39.741  24.013
2276.60  39.677  23.982
2277.10  39.741  23.982
2277.60  39.805  23.982
2278.10  39.805  23.951
2278.60  39.805  23.951
2279.10  39.741  23.982
2279.60  39.741  23.982
2280.10  39.805  23.982
2280.60  39.741  24.013
2281.10  39.805  23.982
2281.60  39.805  23.951
2282.10  39.741  23.951
2282.60  39.741  23.982
2283.10  39.805  23.951
2283.60  39.741  23.982
2284.10  39.741  23.982
2284.60  39.805  23.982
2285.10  39.805  23.982
2285.60  39.805  23.982
2286.10  39.741  23.982
2286.60  39.805  23.982
2287.10  39.741  23.982
2287.60  39.805  23.951
2288.10  39.805  23.951
2288.60  39.805  23.982
2289.10  39.869  23.982
2289.60  39.805  23.982
2290.10  39.741  24.013
2290.60  39.741  23.982
2291.10  39.741  23.982
2291.60  39.741  23.982
2292.10  39.741  23.982
2292.60  39.741  24.043
2293.10  39.869  23.951
2293.60  39.805  24.013
2294.10  39.805  23.982
2294.60  39.805  23.951
2295.10  39.805  24.013
2295.60  39.805  23.982
2296.10  39.805  23.982
2296.60  39.805  24.013
2297.10  39.805  23.982
2297.60  39.805  24.013
2298.10  39.741  23.982
2298.60  39.805  23.951
2299.10  39.741  24.013
2299.60  39.869  23.982
2300.10  39.741  23.982
2300.60  39.869  24.013
2301.10  39.805  23.982
2301.60  39.869  23.951
2302.10  39.805  23.982
2302.60  39.869  23.982
2303.10  39.805  24.013
2303.60  39.805  23.951
2304.10  39.741  23.982
2304.60  39.741  23.982
2305.10  39.805  24.013
2305.60  39.741  23.982
2306.10  39.805  23.982
2306.60  39.869  23.982
2307.10  39.805  23.951
2307.60  39.805  23.951
2308.10  39.805  23.982
2308.60  39.869  23.982
2309.10  39.805  23.982
2309.60  39.741  23.982
2310.10  39.741  23.982
2310.60  39.869  24.013
2311.10  39.805  23.982
2311.60  39.805  23.982
2312.10  39.613  23.951
2312.60  39.805  24.013
2313.10  39.805  23.951
2313.60  39.805  23.982
2314.10  39.741  23.982
2314.60  39.869  23.951
2315.10  39.869  23.982
2315.60  39.805  24.013
2316.10  39.805  24.013
2316.60  39.869  23.982
2317.10  39.741  23.982
2317.60  39.805  23.982
2318.10  39.741  23.982
2318.60  39.805  23.982
2319.10  39.805  23.982
2319.60  39.805  23.982
2320.10  39.869  24.013
2320.60  39.741  23.982
2321.10  39.869  24.013
2321.61  39.805  23.982
2322.11  39.869  23.951
2322.61  39.933  23.982
2323.11  39.805  23.982
2323.61  39.805  24.013
2324.11  39.805  23.982
2324.61  39.805  24.013
2325.11  39.805  24.013
2325.61  39.805  23.982
2326.11  39.869  24.043
2326.61  39.805  23.982
2327.11  39.805  23.982
2327.61  39.805  23.982
2328.11  39.805  23.982
2328.61  39.741  23.982
2329.11  39.805  23.982
2329.61  39.805  23.982
2330.11  39.869  24.013
2330.61  39.805  23.982
2331.11  39.869  23.951
2331.61  39.869  23.982
2332.11  39.805  23.982
2332.61  39.869  23.951
2333.11  39.805  23.982
2333.61  39.869  24.013
2334.11  39.869  23.982
2334.61  39.741  24.013
2335.11  39.869  24.013
2335.61  39.805  23.982
2336.11  39.805  23.982
2336.61  39.805  23.982
2337.11  39.805  24.013
2337.61  39.869  23.951
2338.11  39.805  24.013
2338.61  39.805  23.982
2339.11  39.869  23.951
2339.61  39.805  23.982
2340.11  39.805  23.951
2340.61  39.805  23.982
2341.11  39.805  23.951
2341.61  39.869  24.013
2342.11  39.805  23.951
2342.61  39.805  23.982
2343.11  39.869  23.982
2343.61  39.805  23.982
2344.11  39.741  23.982
2344.61  39.805  23.982
2345.11  39.869  23.982
2345.61  39.741  24.013
2346.11  39.869  23.982
2346.61  39.805  23.951
2347.11  39.805  23.982
2347.61  39.805  23.951
2348.11  39.805  24.013
2348.61  39.805  24.013
2349.11  39.805  24.013
2349.61  39.869  24.013
2350.11  39.805  23.982
2350.61  39.805  23.982
2351.11  39.869  23.982
2351.61  39.805  23.982
2352.11  39.805  24.013
2352.61  39.869  23.982
2353.11  39.933  23.982
2353.61  39.805  23.982
2354.11  39.741  23.982
2354.61  39.869  23.982
2355.11  39.869  23.951
2355.61  39.805  23.982
2356.11  39.869  23.982
2356.61  39.869  24.013
2357.11  39.805  23.982
2357.61  39.805  24.013
2358.11  39.869  24.013
2358.61  39.869  23.982
2359.11  39.869  24.013
2359.61  39.869  23.982
2360.11  39.869  24.013
2360.61  39.869  24.043
2361.11  39.869  24.013
2361.61  39.805  23.982
2362.11  39.869  23.982
2362.61  39.805  23.982
2363.11  39.805  24.013
2363.61  39.869  23.982
2364.11  39.805  23.951
2364.61  39.805  23.982
2365.11  39.869  24.013
2365.61  39.869  24.013
2366.11  39.933  23.982
2366.61  39.869  23.982
2367.11  39.869  24.013
2367.61  39.805  24.013
2368.11  39.869  23.982
2368.61  39.933  24.013
2369.11  39.869  23.982
2369.61  39.869  24.013
2370.11  39.805  24.013
2370.61  39.869  24.013
2371.11  39.869  23.982
2371.61  39.869  24.013
2372.11  39.869  23.982
2372.61  39.933  23.982
2373.11  39.869  23.982
2373.61  39.869  23.920
2374.11  39.869  24.013
2374.61  39.869  24.043
2375.11  39.869  24.043
2375.61  39.869  24.013
2376.11  39.869  24.013
2376.61  39.805  23.982
2377.11  39.869  24.013
2377.61  39.933  24.013
2378.11  39.869  24.013
2378.61  39.933  23.951
2379.11  39.869  23.982
2379.61  39.805  23.982
2380.11  39.869  24.013
2380.61  39.805  24.013
2381.11  39.869  23.982
2381.61  39.869  24.043
2382.11  39.805  24.013
2382.61  39.933  24.013
2383.11  39.869  24.043
2383.61  39.741  24.074
2384.11  39.805  23.920
2384.61  39.869  24.013
2385.11  39.805  24.013
2385.61  39.869  24.013
2386.11  39.933  23.982
2386.61  39.869  23.982
2387.11  39.805  24.013
2387.61  39.869  24.013
2388.11  39.869  24.013
2388.61  39.869  24.013
2389.11  39.869  24.013
2389.61  39.869  23.982
2390.11  39.933  24.043
2390.61  39.869  24.013
2391.11  39.869  24.013
2391.61  39.805  24.013
2392.11  39.869  24.013
2392.61  39.869  23.982
2393.11  39.933  24.013
2393.61  39.869  24.043
2394.11  39.869  24.013
2394.61  39.869  24.013
2395.11  39.869  24.013
2395.61  39.869  24.013
2396.11  39.805  23.982
2396.61  39.933  24.013
2397.11  39.805  24.013
2397.61  39.869  24.013
2398.11  39.869  24.043
2398.61  39.805  24.013
2399.11  39.933  23.982
2399.61  39.869  24.013
2400.11  39.869  23.982
2400.61  39.869  24.043
2401.11  39.997  24.013
2401.61  39.869  23.982
2402.11  39.869  23.982
2402.61  39.869  24.013
2403.11  39.933  23.982
2403.61  39.869  23.982
2404.11  39.869  24.013
2404.61  39.869  24.013
2405.11  39.805  23.982
2405.61  39.997  24.013
2406.11  39.869  23.982
2406.61  39.869  24.013
2407.11  39.933  24.013
2407.61  39.933  24.043
2408.11  39.933  24.013
2408.61  39.805  24.043
2409.11  39.869  24.013
2409.61  39.933  23.951
2410.11  39.869  23.982
2410.61  39.933  24.013
2411.11  39.933  24.013
2411.61  39.869  24.013
2412.11  39.869  24.013
2412.61  39.933  24.013
2413.11  39.869  24.013
2413.61  39.869  23.982
2414.11  39.997  24.013
2414.61  39.869  24.013
2415.11  39.869  23.982
2415.61  39.869  23.982
2416.11  39.805  24.013
2416.61  39.933  24.013
2417.11  39.933  24.043
2417.61  39.933  24.013
2418.11  39.869  24.013
2418.61  39.805  24.043
2419.11  39.869  24.013
2419.61  39.933  24.013
2420.11  39.933  24.013
2420.61  39.933  24.013
2421.11  39.869  24.074
2421.61  39.933  24.043
2422.11  39.933  24.013
2422.61  39.933  24.013
2423.11  39.997  24.043
2423.61  39.869  24.043
2424.11  39.869  24.013
2424.61  39.933  24.013
2425.11  39.869  24.013
2425.61  39.933  24.013
2426.11  39.933  24.013
2426.61  39.933  24.013
2427.11  39.869  24.013
2427.61  39.869  24.043
2428.11  39.869  23.982
2428.61  39.933  24.013
2429.11  39.997  24.013
2429.61  39.869  24.013
2430.11  39.933  24.013
2430.61  39.933  24.074
2431.11  39.869  23.982
2431.61  39.869  24.013
2432.11  39.997  23.982
2432.61  39.933  24.013
2433.11  39.869  24.013
2433.61  39.933  23.982
2434.11  39.933  24.013
2434.61  39.933  24.013
2435.11  39.933  24.013
2435.61  39.869  24.074
2436.11  39.933  24.013
2436.61  39.869  24.013
2437.11  39.805  24.043
2437.61  39.869  24.074
2438.11  39.933  24.013
2438.61  39.997  24.013
2439.11  39.869  24.013
2439.61  39.933  23.982
2440.11  39.997  24.013
2440.61  39.933  24.074
2441.11  39.997  24.013
2441.61  39.933  24.013
2442.11  39.933  24.013
2442.61  39.933  24.043
2443.11  39.933  23.951
2443.61  39.933  24.013
2444.11  39.933  24.074
2444.61  39.933  24.013
2445.11  39.997  24.013
2445.62  39.933  24.043
2446.12  39.933  24.043
2446.62  39.933  24.074
2447.12  39.741  24.043
2447.62  40.077  24.013
2448.12  39.997  24.013
2448.62  39.933  24.013
2449.12  39.933  24.013
2449.62  39.933  24.013
2450.12  39.997  24.074
2450.62  39.933  24.043
2451.12  39.933  24.043
2451.62  39.997  24.043
2452.12  39.933  24.043
2452.62  39.869  24.013
2453.12  39.933  24.013
2453.62  39.933  24.043
2454.12  39.997  24.074
2454.62  39.933  24.013
2455.12  39.933  24.043
2455.62  39.997  24.013
2456.12  39.869  24.013
2456.62  39.997  24.013
2457.12  39.933  24.043
2457.62  39.933  24.043
2458.12  39.869  24.013
2458.62  39.933  24.043
2459.12  39.997  24.043
2459.62  39.997  24.074
2460.12  39.997  23.982
2460.62  39.933  24.013
2461.12  39.933  24.043
2461.62  39.933  24.013
2462.12  40.077  23.982
2462.62  39.933  24.043
2463.12  39.933  24.013
2463.62  39.997  24.043
2464.12  39.997  24.043
2464.62  39.997  24.043
2465.12  39.997  24.013
2465.62  39.997  24.013
2466.12  39.933  24.074
2466.62  39.997  24.043
2467.12  39.933  24.043
2467.62  39.997  24.043
2468.12  39.997  24.013
2468.62  39.997  24.043
2469.12  39.869  24.074
2469.62  39.997  24.043
2470.12  39.933  24.043
2470.62  39.933  24.043
2471.12  39.997  24.043
2471.62  39.933  24.043
2472.12  39.997  24.043
2472.62  39.869  24.013
2473.12  39.997  24.013
2473.62  39.933  24.043
2474.12  39.933  24.043
2474.62  39.997  24.013
2475.12  39.997  24.013
2475.62  39.997  24.043
2476.12  39.933  24.074
2476.62  39.997  24.043
2477.12  39.997  24.013
2477.62  39.997  24.043
2478.12  39.869  24.043
2478.62  39.933  24.013
2479.12  39.997  24.043
2479.62  40.077  24.043
2480.12  39.933  24.074
2480.62  39.997  24.013
2481.12  39.997  24.043
2481.62  39.933  24.043
2482.12  39.933  24.013
2482.62  39.997  24.043
2483.12  39.933  24.043
2483.62  40.077  24.043
2484.12  39.997  24.013
2484.62  39.933  24.043
2485.12  39.805  24.043
2485.62  39.933  24.013
2486.12  39.997  24.043
2486.62  39.933  24.043
2487.12  40.077  24.043
2487.62  39.997  24.074
2488.12  39.997  24.043
2488.62  39.997  24.043
2489.12  39.997  24.043
2489.62  39.933  24.043
2490.12  39.997  24.043
2490.62  39.997  24.043
2491.12  39.933  24.043
2491.62  39.997  24.043
2492.12  39.997  24.013
2492.62  39.933  24.013
2493.12  39.933  24.043
2493.62  39.997  24.043
2494.12  39.997  24.043
2494.62  40.077  24.043
2495.12  39.997  24.043
2495.62  39.997  24.013
2496.12  39.997  24.043
2496.62  39.997  24.043
2497.12  40.158  24.074
2497.62  39.997  24.043
2498.12  39.997  24.013
2498.62  40.077  24.013
2499.12  39.997  24.043
2499.62  39.997  24.043
2500.12  39.997  24.043
2500.62  39.997  24.013
2501.12  39.933  24.043
