   2.00  24.192  23.828
   2.50  24.192  23.797
   3.00  24.218  23.797
   3.50  24.192  23.797
   5.12  24.218  23.828
   5.62  24.218  23.797
   6.12  24.218  23.797
   6.62  24.218  23.797
   7.12  24.218  23.797
   7.62  24.192  23.797
   8.12  24.218  23.766
   8.62  24.218  23.766
   9.12  24.218  23.797
   9.62  24.218  23.766
  10.12  24.218  23.797
  10.62  24.270  23.797
  11.12  24.296  23.766
  11.62  24.375  23.828
  12.12  24.348  23.766
  12.62  24.401  23.797
  13.12  24.375  23.797
  13.62  24.401  23.797
  14.12  24.401  23.797
  14.62  24.401  23.797
  15.12  24.453  23.797
  15.62  24.479  23.797
  16.12  24.453  23.797
  16.62  24.479  23.797
  17.12  24.531  23.797
  17.62  24.531  23.797
  18.12  24.557  23.828
  18.62  24.531  23.828
  19.12  24.583  23.797
  19.62  24.557  23.766
  20.12  24.557  23.797
  20.62  24.583  23.828
  21.12  24.583  23.828
  21.62  24.610  23.797
  22.12  24.610  23.797
  22.62  24.610  23.828
  23.12  24.636  23.797
  23.62  24.636  23.766
  24.12  24.662  23.828
  24.62  24.688  23.828
  25.12  24.714  23.766
  25.62  24.714  23.797
  26.12  24.740  23.828
  26.62  24.714  23.828
  27.12  24.740  23.859
  27.62  24.766  23.828
  28.12  24.740  23.828
  28.62  24.766  23.797
  29.12  24.792  23.828
  29.62  24.766  23.889
  30.12  24.792  23.797
  30.62  24.819  23.828
  31.12  24.792  23.797
  31.62  24.792  23.766
  32.12  24.897  23.828
  32.62  24.845  23.797
  33.12  24.845  23.828
  33.62  24.845  23.828
  34.12  24.871  23.797
  34.62  24.897  23.828
  35.12  24.871  23.828
  35.62  24.871  23.735
  36.12  24.897  23.797
  36.62  24.897  23.797
  37.12  24.923  23.766
  37.62  24.923  23.797
  38.12  24.949  23.797
  38.62  24.975  23.797
  39.12  24.923  23.828
  39.62  24.949  23.797
  40.12  24.949  23.828
  40.62  24.923  23.828
  41.12  24.975  23.889
  41.62  25.005  23.797
  42.12  25.114  23.797
  42.62  24.975  23.797
  43.12  25.114  23.828
  43.62  24.975  23.828
  44.12  25.114  23.797
  44.62  25.005  23.828
  45.12  25.005  23.828
  45.62  25.222  23.828
  46.12  25.114  23.859
  46.62  25.114  23.889
  47.12  25.222  23.828
  47.62  25.222  23.797
  48.12  25.222  23.828
  48.62  25.114  23.828
  49.12  25.222  23.828
  49.63  25.222  23.828
  50.13  25.330  23.828
  50.63  25.114  23.797
  51.13  25.330  23.828
  51.63  25.438  23.859
  52.13  25.330  23.828
  52.63  25.438  23.797
  53.13  25.222  23.797
  53.63  25.438  23.797
  54.13  25.547  23.828
  54.63  25.438  23.828
  55.13  25.547  23.828
  55.63  25.438  23.828
  56.13  25.547  23.828
  56.63  25.655  23.828
  57.13  25.547  23.797
  57.63  25.547  23.828
  58.13  25.330  23.828
  58.63  25.547  23.828
  59.13  25.655  23.797
  59.63  25.655  23.828
  60.13  25.655  23.828
  60.63  25.655  23.828
  61.13  25.871  23.766
  61.63  25.547  23.828
  62.13  25.655  23.797
  62.63  25.655  23.828
  63.13  25.763  23.828
  63.63  25.763  23.828
  64.13  25.547  23.828
  64.63  25.763  23.828
  65.13  25.763  23.828
  65.63  25.763  23.859
  66.13  25.763  23.766
  66.63  25.980  23.828
  67.13  25.763  23.828
  67.63  25.871  23.828
  68.13  25.871  23.828
  68.63  25.980  23.828
  69.13  26.088  23.828
  69.63  25.871  23.797
  70.13  26.088  23.797
  70.63  25.980  23.828
  71.13  25.980  23.828
  71.63  26.088  23.797
  72.13  25.980  23.828
  72.63  25.980  23.828
  73.13  26.088  23.797
  73.63  26.196  23.797
  74.13  26.196  23.766
  74.63  26.088  23.859
  75.13  26.304  23.828
  75.63  26.088  23.859
  76.13  26.088  23.797
  76.63  26.196  23.797
  77.13  26.196  23.828
  77.63  26.088  23.828
  78.13  26.196  23.828
  78.63  26.304  23.797
  79.13  26.196  23.828
  79.63  26.304  23.797
  80.13  26.196  23.797
  80.63  26.304  23.797
  81.13  26.304  23.828
  81.63  26.304  23.889
  82.13  26.304  23.828
  82.63  26.196  23.828
  83.13  26.304  23.859
  83.63  26.304  23.797
  84.13  26.413  23.797
  84.63  26.521  23.859
  85.13  26.413  23.828
  85.63  26.521  23.828
  86.13  26.413  23.828
  86.63  26.413  23.828
  87.13  26.413  23.828
  87.63  26.629  23.828
  88.13  26.413  23.859
  88.63  26.413  23.889
  89.13  26.521  23.828
  89.63  26.521  23.828
  90.13  26.521  23.797
  90.63  26.629  23.828
  91.13  26.629  23.828
  91.63  26.521  23.828
  92.13  26.737  23.797
  92.63  26.629  23.828
  93.13  26.629  23.920
  93.63  26.629  23.797
  94.13  26.954  23.859
  94.63  26.629  23.828
  95.13  26.629  23.828
  95.63  26.521  23.828
  96.13  26.737  23.828
  96.63  26.737  23.828
  97.13  26.521  23.828
  97.63  26.846  23.828
  98.13  26.846  23.859
  98.63  26.629  23.828
  99.13  26.629  23.828
  99.63  26.629  23.828
 100.13  26.521  23.828
 100.63  26.737  23.828
 101.13  26.737  23.828
 101.63  26.954  23.828
 102.13  26.737  23.797
 102.63  26.846  23.859
 103.13  26.737  23.828
 103.63  26.846  23.828
 104.13  26.846  23.828
 104.63  26.846  23.828
 105.13  27.062  23.859
 105.63  26.954  23.828
 106.13  26.954  23.859
 106.63  26.954  23.859
 107.13  26.846  23.859
 107.63  26.846  23.828
 108.13  26.954  23.828
 108.63  26.954  23.828
 109.13  26.954  23.828
 109.63  26.954  23.828
 110.13  26.954  23.828
 110.63  27.062  23.859
 111.13  26.846  23.797
 111.63  27.062  23.828
 112.13  26.846  23.828
 112.63  26.954  23.828
 113.13  27.062  23.828
 113.63  26.846  23.797
 114.13  27.170  23.828
 114.63  27.062  23.828
 115.13  27.062  23.797
 115.63  27.062  23.828
 116.13  27.062  23.828
 116.63  27.170  23.828
 117.13  26.846  23.797
 117.63  27.062  23.828
 118.13  27.062  23.828
 118.63  27.062  23.828
 119.13  27.170  23.828
 119.63  27.279  23.859
 120.13  27.387  23.828
 120.63  27.279  23.828
 121.13  27.170  23.828
 121.63  27.279  23.797
 122.13  27.279  23.859
 122.63  27.170  23.859
 123.13  27.279  23.828
 123.63  27.279  23.859
 124.13  27.279  23.859
 124.63  27.170  23.828
 125.13  27.170  23.828
 125.63  27.170  23.828
 126.13  27.603  23.828
 126.63  27.387  23.828
 127.13  27.387  23.828
 127.63  27.279  23.828
 128.13  27.279  23.828
 128.63  27.279  23.859
 129.13  27.279  23.828
 129.63  27.495  23.859
 130.13  27.387  23.859
 130.63  27.279  23.797
 131.13  27.495  23.889
 131.63  27.387  23.828
 132.13  27.495  23.828
 132.63  27.495  23.859
 133.13  27.495  23.828
 133.63  27.495  23.828
 134.13  27.495  23.828
 134.63  27.495  23.828
 135.13  27.603  23.828
 135.63  27.603  23.859
 136.13  27.495  23.859
 136.63  27.495  23.828
 137.13  27.495  23.828
 137.63  27.603  23.859
 138.13  27.495  23.828
 138.63  27.495  23.797
 139.13  27.495  23.828
 139.63  27.495  23.828
 140.13  27.712  23.889
 140.63  27.603  23.889
 141.13  27.712  23.828
 141.63  27.603  23.859
 142.13  27.603  23.859
 142.63  27.712  23.859
 143.13  27.712  23.828
 143.63  27.820  23.859
 144.13  27.495  23.859
 144.63  27.603  23.828
 145.13  27.495  23.828
 145.63  27.712  23.859
 146.13  27.603  23.828
 146.63  27.928  23.828
 147.13  27.603  23.828
 147.63  27.603  23.828
 148.13  27.820  23.828
 148.63  27.712  23.859
 149.13  27.712  23.889
 149.63  27.603  23.828
 150.13  27.603  23.828
 150.63  27.712  23.797
 151.13  27.603  23.859
 151.63  27.712  23.797
 152.13  27.712  23.859
 152.63  27.928  23.859
 153.13  27.820  23.797
 153.63  27.712  23.828
 154.13  27.820  23.828
 154.63  27.820  23.828
 155.13  27.603  23.828
 155.63  27.820  23.828
 156.13  28.036  23.828
 156.63  27.712  23.828
 157.13  27.928  23.828
 157.63  27.712  23.859
 158.13  27.712  23.797
 158.63  27.820  23.828
 159.13  27.712  23.828
 159.63  27.928  23.828
 160.13  27.820  23.859
 160.63  28.036  23.828
 161.13  27.820  23.828
 161.63  27.928  23.859
 162.13  27.820  23.797
 162.64  27.928  23.859
 163.14  27.820  23.828
 163.64  28.036  23.859
 164.14  28.036  23.859
 164.64  28.036  23.828
 165.14  27.928  23.859
 165.64  28.036  23.859
 166.14  28.036  23.859
 166.64  28.036  23.859
 167.14  28.036  23.859
 167.64  28.036  23.828
 168.14  28.145  23.828
 168.64  28.253  23.828
 169.14  28.036  23.859
 169.64  28.145  23.828
 170.14  28.145  23.828
 170.64  28.036  23.859
 171.14  28.036  23.828
 171.64  28.036  23.859
 172.14  28.036  23.828
 172.64  28.036  23.859
 173.14  28.361  23.797
 173.64  28.036  23.859
 174.14  28.036  23.828
 174.64  28.036  23.828
 175.14  28.145  23.859
 175.64  28.145  23.828
 176.14  28.145  23.828
 176.64  28.145  23.828
 177.14  28.145  23.828
 177.64  28.145  23.859
 178.14  28.253  23.859
 178.64  28.145  23.828
 179.14  28.036  23.828
 179.64  28.253  23.828
 180.14  28.253  23.828
 180.64  28.253  23.797
 181.14  28.253  23.828
 181.64  28.253  23.828
 182.14  28.145  23.797
 182.64  28.253  23.828
 183.14  28.145  23.828
 183.64  28.253  23.859
 184.14  28.469  23.828
 184.64  28.253  23.797
 185.14  28.253  23.828
 185.64  28.361  23.828
 186.14  28.361  23.859
 186.64  28.253  23.828
 187.14  28.253  23.828
 187.64  28.253  23.828
 188.14  28.253  23.828
 188.64  28.253  23.859
 189.14  28.145  23.828
 189.64  28.361  23.859
 190.14  28.253  23.828
 190.64  28.253  23.828
 191.14  28.253  23.859
 191.64  28.361  23.859
 192.14  28.361  23.828
 192.64  28.578  23.828
 193.14  28.361  23.828
 193.64  28.361  23.828
 194.14  28.361  23.828
 194.64  28.469  23.859
 195.14  28.361  23.859
 195.64  28.469  23.828
 196.14  28.469  23.828
 196.64  28.469  23.859
 197.14  28.469  23.859
 197.64  28.578  23.859
 198.14  28.469  23.859
 198.64  28.578  23.828
 199.14  28.469  23.859
 199.64  28.469  23.859
 200.14  28.469  23.859
 200.64  28.686  23.828
 201.14  28.578  23.859
 201.64  28.469  23.859
 202.14  28.469  23.828
 202.64  28.469  23.797
 203.14  28.578  23.859
 203.64  28.686  23.828
 204.14  28.578  23.889
 204.64  28.578  23.859
 205.14  28.578  23.859
 205.64  28.578  23.859
 206.14  28.578  23.828
 206.64  28.578  23.828
 207.14  28.794  23.828
 207.64  28.578  23.859
 208.14  28.469  23.828
 208.64  28.686  23.828
 209.14  28.578  23.859
 209.64  28.578  23.859
 210.14  28.794  23.859
 210.64  28.469  23.828
 211.14  28.578  23.828
 211.64  28.794  23.828
 212.14  28.578  23.889
 212.64  28.794  23.859
 213.14  28.902  23.889
 213.64  28.794  23.828
 214.14  28.578  23.828
 214.64  28.794  23.859
 215.14  28.794  23.859
 215.64  28.794  23.828
 216.14  28.794  23.859
 216.64  28.686  23.859
 217.14  28.794  23.828
 217.64  28.794  23.889
 218.14  28.902  23.859
 218.64  28.686  23.828
 219.14  28.794  23.859
 219.64  28.794  23.828
 220.14  28.902  23.797
 220.64  28.794  23.859
 221.14  28.578  23.797
 221.64  28.686  23.859
 222.14  28.902  23.859
 222.64  28.902  23.920
 223.14  28.902  23.797
 223.64  29.011  23.859
 224.14  28.686  23.889
 224.64  28.902  23.859
 225.14  28.902  23.859
 225.64  28.902  23.828
 226.14  28.902  23.797
 226.64  29.011  23.859
 227.14  28.794  23.859
 227.64  29.011  23.828
 228.14  29.011  23.859
 228.64  29.011  23.828
 229.14  28.902  23.859
 229.64  28.902  23.828
 230.14  28.902  23.859
 230.64  28.902  23.828
 231.14  29.011  23.828
 231.64  29.011  23.859
 232.14  29.011  23.828
 232.64  29.011  23.797
 233.14  29.011  23.859
 233.64  28.902  23.859
 234.14  28.794  23.828
 234.64  29.011  23.828
 235.14  29.011  23.859
 235.64  29.011  23.828
 236.14  28.794  23.859
 236.64  28.902  23.797
 237.14  28.902  23.859
 237.64  29.011  23.828
 238.14  29.011  23.828
 238.64  28.902  23.859
 239.14  29.011  23.828
 239.64  28.902  23.859
 240.14  28.902  23.859
 240.64  29.119  23.797
 241.14  29.119  23.828
 241.64  29.011  23.859
 242.14  29.119  23.859
 242.64  29.119  23.828
 243.14  29.011  23.859
 243.64  29.119  23.797
 244.14  29.227  23.828
 244.64  29.227  23.828
 245.14  29.119  23.859
 245.64  29.119  23.859
 246.14  29.119  23.859
 246.64  29.227  23.859
 247.14  29.119  23.859
 247.64  29.119  23.889
 248.14  29.227  23.828
 248.64  29.335  23.859
 249.14  29.227  23.797
 249.64  29.227  23.859
 250.14  29.335  23.828
 250.64  29.119  23.828
 251.14  29.227  23.828
 251.64  29.119  23.859
 252.14  29.227  23.859
 252.64  29.227  23.859
 253.14  29.227  23.828
 253.64  29.227  23.859
 254.14  29.227  23.859
 254.64  29.119  23.859
 255.14  29.227  23.859
 255.64  29.227  23.859
 256.14  29.119  23.859
 256.64  29.227  23.828
 257.14  29.335  23.859
 257.64  29.335  23.828
 258.14  29.335  23.859
 258.64  29.335  23.889
 259.14  29.335  23.828
 259.64  29.335  23.889
 260.14  29.335  23.828
 260.64  29.335  23.828
 261.14  29.335  23.828
 261.64  29.444  23.828
 262.14  29.227  23.797
 262.64  29.335  23.828
 263.14  29.444  23.828
 263.64  29.335  23.797
 264.14  29.335  23.859
 264.64  29.444  23.859
 265.14  29.335  23.859
 265.64  29.444  23.889
 266.14  29.444  23.828
 266.64  29.444  23.828
 267.14  29.335  23.859
 267.64  29.444  23.828
 268.14  29.444  23.859
 268.64  29.227  23.889
 269.14  29.444  23.859
 269.64  29.444  23.889
 270.14  29.552  23.859
 270.64  29.335  23.828
 271.14  29.119  23.859
 271.64  29.011  23.828
 272.14  29.444  23.797
 272.64  29.444  23.859
 273.14  29.444  23.889
 273.64  29.552  23.859
 274.14  29.444  23.859
 274.64  29.444  23.859
 275.14  29.552  23.828
 275.64  29.444  23.828
 276.15  29.552  23.859
 276.65  29.335  23.828
 277.15  29.660  23.828
 277.65  29.552  23.828
 278.15  29.552  23.859
 278.65  29.444  23.828
 279.15  29.552  23.797
 279.65  29.444  23.828
 280.15  29.444  23.889
 280.65  29.444  23.828
 281.15  29.552  23.889
 281.65  29.768  23.859
 282.15  29.660  23.889
 282.65  29.552  23.859
 283.15  29.444  23.859
 283.65  29.552  23.859
 284.15  29.660  23.889
 284.65  29.552  23.859
 285.15  29.660  23.797
 285.65  29.660  23.859
 286.15  29.660  23.828
 286.65  29.660  23.859
 287.15  29.768  23.828
 287.65  29.768  23.859
 288.15  29.768  23.859
 288.65  29.768  23.859
 289.15  29.552  23.859
 289.65  29.660  23.828
 290.15  29.660  23.859
 290.65  29.660  23.828
 291.15  29.660  23.859
 291.65  29.768  23.889
 292.15  29.660  23.828
 292.65  29.660  23.828
 293.15  29.768  23.828
 293.65  29.768  23.859
 294.15  29.768  23.889
 294.65  29.552  23.859
 295.15  29.552  23.859
 295.65  29.768  23.828
 296.15  29.660  23.859
 296.65  29.768  23.797
 297.15  29.768  23.859
 297.65  29.768  23.859
 298.15  29.768  23.889
 298.65  29.768  23.828
 299.15  29.768  23.859
 299.65  29.660  23.859
 300.15  29.768  23.828
 300.65  29.768  23.889
 301.15  29.985  23.859
 301.65  29.877  23.797
 302.15  29.877  23.889
 302.65  29.768  23.889
 303.15  29.768  23.859
 303.65  29.985  23.889
 304.15  29.985  23.828
 304.65  29.768  23.859
 305.15  29.768  23.828
 305.65  29.877  23.828
 306.15  29.877  23.828
 306.65  29.768  23.889
 307.15  29.877  23.859
 307.65  29.877  23.859
 308.15  29.877  23.828
 308.65  29.768  23.889
 309.15  30.101  23.859
 309.65  29.877  23.828
 310.15  29.985  23.859
 310.65  29.985  23.828
 311.15  29.985  23.828
 311.65  29.877  23.828
 312.15  29.985  23.828
 312.65  29.877  23.859
 313.15  29.985  23.828
 313.65  29.985  23.828
 314.15  29.877  23.828
 314.65  29.877  23.859
 315.15  29.877  23.828
 315.65  29.985  23.859
 316.15  29.985  23.889
 316.65  29.985  23.859
 317.15  29.985  23.828
 317.65  29.985  23.828
 318.15  29.877  23.889
 318.65  29.985  23.828
 319.15  29.985  23.859
 319.65  29.985  23.859
 320.15  29.877  23.828
 320.65  30.101  23.828
 321.15  29.985  23.889
 321.65  29.985  23.828
 322.15  29.985  23.889
 322.65  30.101  23.828
 323.15  29.985  23.828
 323.65  29.985  23.859
 324.15  29.985  23.859
 324.65  29.877  23.828
 325.15  29.985  23.828
 325.65  29.985  23.828
 326.15  30.101  23.859
 326.65  30.101  23.828
 327.15  30.217  23.828
 327.65  29.985  23.859
 328.15  29.877  23.859
 328.65  30.101  23.828
 329.15  30.101  23.859
 329.65  30.101  23.859
 330.15  30.101  23.859
 330.65  30.101  23.859
 331.15  30.101  23.859
 331.65  29.877  23.828
 332.15  30.101  23.828
 332.65  29.877  23.859
 333.15  30.101  23.859
 333.65  30.334  23.859
 334.15  30.101  23.828
 334.65  30.101  23.859
 335.15  30.101  23.797
 335.65  29.877  23.828
 336.15  30.334  23.859
 336.65  30.217  23.859
 337.15  30.217  23.859
 337.65  29.985  23.889
 338.15  30.217  23.859
 338.65  29.985  23.859
 339.15  30.217  23.828
 339.65  30.451  23.859
 340.15  30.217  23.859
 340.65  30.217  23.797
 341.15  30.217  23.828
 341.65  30.217  23.859
 342.15  30.217  23.828
 342.65  30.217  23.828
 343.15  30.217  23.859
 343.65  30.217  23.859
 344.15  30.217  23.828
 344.65  30.217  23.859
 345.15  30.217  23.859
 345.65  30.101  23.828
 346.15  30.217  23.859
 346.65  30.334  23.859
 347.15  30.217  23.889
 347.65  30.101  23.828
 348.15  30.217  23.920
 348.65  30.334  23.859
 349.15  30.217  23.859
 349.65  30.334  23.859
 350.15  30.334  23.889
 350.65  30.334  23.859
 351.15  30.217  23.859
 351.65  30.334  23.859
 352.15  30.451  23.859
 352.65  30.217  23.859
 353.15  30.334  23.859
 353.65  30.217  23.828
 354.15  30.334  23.828
 354.65  30.568  23.859
 355.15  30.451  23.859
 355.65  30.334  23.859
 356.15  30.451  23.859
 356.65  30.334  23.859
 357.15  30.451  23.828
 357.65  30.334  23.889
 358.15  30.451  23.828
 358.65  30.334  23.859
 359.15  30.451  23.859
 359.65  30.451  23.889
 360.15  30.217  23.889
 360.65  30.334  23.889
 361.15  30.334  23.828
 361.65  30.451  23.889
 362.15  30.334  23.859
 362.65  30.334  23.859
 363.15  30.451  23.828
 363.65  30.568  23.859
 364.15  30.334  23.859
 364.65  30.568  23.828
 365.15  30.451  23.859
 365.65  30.451  23.828
 366.15  30.451  23.859
 366.65  30.568  23.889
 367.15  30.568  23.859
 367.65  30.451  23.828
 368.15  30.451  23.859
 368.65  30.685  23.859
 369.15  30.334  23.828
 369.65  30.451  23.828
 370.15  30.685  23.828
 370.65  30.451  23.828
 371.15  30.451  23.889
 371.65  30.685  23.828
 372.15  30.568  23.859
 372.65  30.685  23.828
 373.15  30.685  23.859
 373.65  30.451  23.859
 374.15  30.685  23.828
 374.65  30.568  23.859
 375.15  30.568  23.859
 375.65  30.685  23.859
 376.15  30.568  23.828
 376.65  30.802  23.859
 377.15  30.568  23.828
 377.65  30.568  23.859
 378.15  30.685  23.859
 378.65  30.568  23.859
 379.15  30.568  23.828
 379.65  30.451  23.859
 380.15  30.568  23.828
 380.65  30.568  23.859
 381.15  30.685  23.859
 381.65  30.685  23.828
 382.15  30.568  23.828
 382.65  30.568  23.889
 383.15  30.568  23.859
 383.65  30.568  23.859
 384.15  30.334  23.828
 384.65  30.568  23.828
 385.15  30.685  23.828
 385.65  30.685  23.859
 386.15  30.568  23.889
 386.65  30.685  23.828
 387.15  30.685  23.859
 387.65  30.685  23.859
 388.15  30.685  23.889
 388.65  30.568  23.859
 389.16  30.802  23.828
 389.66  30.685  23.859
 390.16  30.685  23.859
 390.66  30.685  23.859
 391.16  30.685  23.859
 391.66  30.685  23.859
 392.16  30.685  23.859
 392.66  30.802  23.859
 393.16  30.568  23.859
 393.66  30.685  23.889
 394.16  30.685  23.889
 394.66  30.685  23.859
 395.16  30.685  23.859
 395.66  30.568  23.889
 396.16  30.802  23.859
 396.66  30.802  23.859
 397.16  30.919  23.828
 397.66  30.685  23.828
 398.16  30.802  23.859
 398.66  30.802  23.828
 399.16  30.685  23.828
 399.66  30.685  23.828
 400.16  30.802  23.859
 400.66  30.919  23.859
 401.16  30.685  23.889
 401.66  30.802  23.859
 402.16  30.802  23.889
 402.66  30.685  23.828
 403.16  30.802  23.920
 403.66  30.802  23.859
 404.16  30.802  23.859
 404.66  30.919  23.920
 405.16  30.802  23.889
 405.66  30.802  23.859
 406.16  30.685  23.859
 406.66  30.802  23.859
 407.16  30.919  23.859
 407.66  30.802  23.859
 408.16  30.919  23.859
 408.66  30.802  23.889
 409.16  30.802  23.889
 409.66  30.802  23.859
 410.16  30.802  23.828
 410.66  30.802  23.828
 411.16  30.802  23.828
 411.66  30.802  23.859
 412.16  30.919  23.859
 412.66  30.802  23.859
 413.16  30.919  23.859
 413.66  30.919  23.828
 414.16  30.919  23.859
 414.66  30.919  23.828
 415.16  30.802  23.828
 415.66  30.802  23.889
 416.16  30.802  23.859
 416.66  30.919  23.828
 417.16  30.802  23.859
 417.66  30.802  23.828
 418.16  30.802  23.828
 418.66  30.802  23.859
 419.16  30.919  23.889
 419.66  30.919  23.828
 420.16  30.919  23.889
 420.66  30.802  23.859
 421.16  30.919  23.889
 421.66  31.152  23.828
 422.16  31.036  23.859
 422.66  30.919  23.859
 423.16  30.919  23.951
 423.66  30.919  23.828
 424.16  30.919  23.859
 424.66  31.152  23.828
 425.16  30.919  23.828
 425.66  30.919  23.859
 426.16  30.919  23.889
 426.66  31.036  23.859
 427.16  31.036  23.920
 427.66  30.919  23.859
 428.16  31.036  23.859
 428.66  31.036  23.859
 429.16  31.036  23.797
 429.66  30.919  23.859
 430.16  31.036  23.828
 430.66  30.802  23.859
 431.16  31.036  23.828
 431.66  31.152  23.828
 432.16  31.036  23.828
 432.66  31.036  23.859
 433.16  31.036  23.859
 433.66  31.036  23.920
 434.16  31.036  23.828
 434.66  31.036  23.859
 435.16  31.036  23.828
 435.66  30.919  23.859
 436.16  30.919  23.859
 436.66  31.036  23.859
 437.16  30.919  23.859
 437.66  31.152  23.859
 438.16  31.152  23.859
 438.66  31.036  23.859
 439.16  31.152  23.828
 439.66  31.152  23.859
 440.16  31.036  23.889
 440.66  31.036  23.889
 441.16  31.036  23.828
 441.66  31.036  23.859
 442.16  31.036  23.859
 442.66  31.152  23.828
 443.16  31.152  23.797
 443.66  31.036  23.859
 444.16  31.036  23.859
 444.66  31.269  23.828
 445.16  31.152  23.859
 445.66  31.036  23.828
 446.16  31.152  23.859
 446.66  31.152  23.859
 447.16  31.036  23.828
 447.66  31.152  23.889
 448.16  31.152  23.889
 448.66  31.152  23.828
 449.16  31.269  23.828
 449.66  31.269  23.859
 450.16  31.036  23.859
 450.66  31.152  23.859
 451.16  31.152  23.828
 451.66  31.152  23.859
 452.16  31.036  23.859
 452.66  31.269  23.859
 453.16  31.152  23.889
 453.66  31.269  23.828
 454.16  31.152  23.828
 454.66  31.152  23.859
 455.16  31.269  23.859
 455.66  31.036  23.828
 456.16  31.269  23.920
 456.66  31.269  23.828
 457.16  31.152  23.828
 457.66  31.269  23.828
 458.16  31.152  23.859
 458.66  31.269  23.828
 459.16  31.269  23.859
 459.66  31.036  23.859
 460.16  31.152  23.828
 460.66  31.269  23.859
 461.16  31.269  23.859
 461.66  31.269  23.828
 462.16  31.269  23.859
 462.66  31.152  23.859
 463.16  31.269  23.889
 463.66  31.503  23.828
 464.16  31.386  23.859
 464.66  31.386  23.828
 465.16  31.269  23.859
 465.66  31.269  23.859
 466.16  31.386  23.859
 466.66  31.269  23.859
 467.16  31.269  23.889
 467.66  31.269  23.828
 468.16  31.152  23.859
 468.66  31.152  23.889
 469.16  31.269  23.859
 469.66  31.152  23.828
 470.16  31.269  23.859
 470.66  31.386  23.859
 471.16  31.152  23.859
 471.66  31.152  23.859
 472.16  31.269  23.828
 472.66  31.386  23.828
 473.16  31.386  23.859
 473.66  31.386  23.828
 474.16  31.386  23.828
 474.66  31.152  23.859
 475.16  31.386  23.859
 475.66  31.269  23.889
 476.16  31.386  23.828
 476.66  31.386  23.859
 477.16  31.386  23.951
 477.66  31.386  23.859
 478.16  31.152  23.828
 478.66  31.269  23.859
 479.16  31.386  23.889
 479.66  31.386  23.859
 480.16  31.503  23.859
 480.66  31.386  23.859
 481.16  31.620  23.859
 481.66  31.386  23.859
 482.16  31.386  23.859
 482.66  31.386  23.859
 483.16  31.503  23.859
 483.66  31.269  23.859
 484.16  31.503  23.828
 484.66  31.386  23.828
 485.16  31.386  23.828
 485.66  31.386  23.859
 486.16  31.503  23.859
 486.66  31.386  23.920
 487.16  31.386  23.859
 487.66  31.503  23.828
 488.16  31.503  23.859
 488.66  31.503  23.859
 489.16  31.386  23.828
 489.66  31.503  23.828
 490.16  31.503  23.859
 490.66  31.386  23.828
 491.17  31.386  23.828
 491.67  31.503  23.859
 492.17  31.620  23.859
 492.67  31.503  23.889
 493.17  31.503  23.828
 493.67  31.503  23.859
 494.17  31.503  23.828
 494.67  31.503  23.859
 495.17  31.503  23.859
 495.67  31.386  23.889
 496.17  31.503  23.859
 496.67  31.503  23.859
 497.17  31.503  23.859
 497.67  31.620  23.889
 498.17  31.386  23.920
 498.67  31.737  23.889
 499.17  31.503  23.828
 499.67  31.620  23.859
 500.17  31.620  23.828
 500.67  31.503  23.859
 501.17  31.503  23.889
 501.67  31.503  23.859
 502.17  31.620  23.828
 502.67  31.620  23.859
 503.17  31.503  23.859
 503.67  31.503  23.828
 504.17  31.620  23.859
 504.67  31.503  23.859
 505.17  31.854  23.859
 505.67  31.620  23.859
 506.17  31.620  23.859
 506.67  31.503  23.859
 507.17  31.620  23.889
 507.67  31.503  23.859
 508.17  31.620  23.859
 508.67  31.503  23.828
 509.17  31.503  23.828
 509.67  31.503  23.828
 510.17  31.620  23.859
 510.67  31.737  23.859
 511.17  31.503  23.889
 511.67  31.620  23.859
 512.17  31.620  23.828
 512.67  31.620  23.828
 513.17  31.503  23.828
 513.67  31.620  23.828
 514.17  31.737  23.859
 514.67  31.620  23.889
 515.17  31.620  23.859
 515.67  31.503  23.859
 516.17  31.737  23.859
 516.67  31.737  23.859
 517.17  31.737  23.797
 517.67  31.854  23.859
 518.17  31.620  23.859
 518.67  31.737  23.828
 519.17  31.620  23.859
 519.67  31.737  23.889
 520.17  32.087  23.889
 520.67  31.503  23.859
 521.17  31.737  23.859
 521.67  31.854  23.859
 522.17  31.854  23.859
 522.67  31.737  23.859
 523.17  31.737  23.889
 523.67  31.854  23.889
 524.17  31.854  23.859
 524.67  31.503  23.920
 525.17  31.620  23.859
 525.67  31.854  23.859
 526.17  31.854  23.859
 526.67  31.854  23.859
 527.17  31.854  23.859
 527.67  31.854  23.828
 528.17  31.737  23.859
 528.67  31.737  23.859
 529.17  31.620  23.889
 529.67  31.737  23.889
 530.17  31.854  23.828
 530.67  31.737  23.859
 531.17  31.737  23.889
 531.67  31.737  23.828
 532.17  31.737  23.859
 532.67  31.737  23.889
 533.17  32.087  23.859
 533.67  31.854  23.889
 534.17  31.854  23.859
 534.67  31.854  23.859
 535.17  31.854  23.889
 535.67  31.737  23.859
 536.17  31.737  23.859
 536.67  31.971  23.920
 537.17  31.854  23.889
 537.67  31.854  23.889
 538.17  31.854  23.859
 538.67  31.854  23.859
 539.17  31.854  23.859
 539.67  31.854  23.859
 540.17  31.737  23.859
 540.67  31.854  23.889
 541.17  31.971  23.859
 541.67  31.971  23.859
 542.17  31.854  23.859
 542.67  31.854  23.828
 543.17  31.854  23.889
 543.67  31.737  23.859
 544.17  31.971  23.889
 544.67  32.087  23.828
 545.17  31.854  23.828
 545.67  31.971  23.859
 546.17  31.854  23.859
 546.67  31.854  23.828
 547.17  31.971  23.859
 547.67  31.971  23.859
 548.17  31.971  23.889
 548.67  32.087  23.889
 549.17  31.971  23.889
 549.67  31.971  23.859
 550.17  31.737  23.859
 550.67  31.971  23.859
 551.17  31.971  23.889
 551.67  31.971  23.859
 552.17  31.737  23.859
 552.67  32.087  23.859
 553.17  31.854  23.859
 553.67  31.971  23.889
 554.17  31.854  23.889
 554.67  31.971  23.828
 555.17  31.971  23.859
 555.67  31.971  23.828
 556.17  31.854  23.859
 556.67  31.737  23.889
 557.17  31.971  23.920
 557.67  31.971  23.859
 558.17  31.971  23.859
 558.67  31.854  23.889
 559.17  31.971  23.920
 559.67  31.971  23.859
 560.17  31.971  23.889
 560.67  31.971  23.859
 561.17  31.971  23.889
 561.67  31.854  23.828
 562.17  31.971  23.859
 562.67  31.971  23.828
 563.17  31.854  23.859
 563.67  32.087  23.859
 564.17  32.087  23.859
 564.67  31.971  23.859
 565.17  31.971  23.859
 565.67  31.971  23.859
 566.17  31.971  23.859
 566.67  31.854  23.859
 567.17  32.204  23.859
 567.67  31.854  23.859
 568.17  31.971  23.859
 568.67  31.971  23.889
 569.17  31.971  23.889
 569.67  32.087  23.920
 570.17  32.087  23.859
 570.67  32.087  23.859
 571.17  32.087  23.859
 571.67  32.087  23.889
 572.17  32.087  23.859
 572.67  31.971  23.889
 573.17  32.087  23.828
 573.67  32.087  23.920
 574.17  32.087  23.859
 574.67  31.971  23.859
 575.17  31.971  23.859
 575.67  32.087  23.859
 576.17  31.854  23.859
 576.67  32.087  23.889
 577.17  32.087  23.889
 577.67  32.204  23.859
 578.17  32.087  23.859
 578.67  32.204  23.828
 579.17  32.087  23.859
 579.67  32.087  23.859
 580.17  32.087  23.889
 580.67  32.087  23.859
 581.17  32.087  23.889
 581.67  32.204  23.859
 582.17  32.087  23.859
 582.67  32.087  23.889
 583.17  32.087  23.889
 583.67  32.087  23.859
 584.17  32.204  23.859
 584.67  32.087  23.859
 585.17  32.087  23.951
 585.67  31.971  23.859
 586.17  32.087  23.859
 586.67  31.971  23.859
 587.17  32.087  23.889
 587.67  32.321  23.828
 588.17  32.204  23.828
 588.67  32.204  23.828
 589.17  32.087  23.859
 589.67  32.204  23.859
 590.17  32.087  23.859
 590.67  32.087  23.859
 591.17  32.087  23.859
 591.67  32.087  23.859
 592.17  32.204  23.859
 592.67  32.087  23.889
 593.17  32.204  23.859
 593.67  32.087  23.859
 594.17  32.087  23.889
 594.67  32.087  23.889
 595.17  32.204  23.859
 595.67  32.204  23.859
 596.17  32.204  23.859
 596.67  32.321  23.859
 597.17  32.204  23.889
 597.67  32.087  23.859
 598.17  32.438  23.889
 598.67  32.204  23.889
 599.17  32.204  23.859
 599.67  32.204  23.859
 600.17  32.204  23.859
 600.67  32.321  23.889
 601.17  32.321  23.859
 601.67  32.204  23.859
 602.17  32.321  23.889
 602.67  32.321  23.859
 603.17  32.204  23.859
 603.67  32.204  23.859
 604.17  32.204  23.859
 604.67  32.204  23.920
 605.17  32.087  23.859
 605.67  32.321  23.797
 606.17  32.204  23.828
 606.67  32.204  23.859
 607.17  32.321  23.859
 607.67  32.321  23.889
 608.17  32.321  23.859
 608.67  32.204  23.889
 609.17  32.321  23.889
 609.67  32.087  23.859
 610.17  32.321  23.889
 610.67  32.321  23.859
 611.17  32.321  23.859
 611.67  32.321  23.889
 612.17  32.321  23.889
 612.67  32.438  23.859
 613.17  32.204  23.889
 613.67  32.438  23.920
 614.17  32.321  23.889
 614.67  32.321  23.828
 615.18  32.321  23.859
 615.68  32.438  23.889
 616.18  32.321  23.859
 616.68  32.321  23.889
 617.18  32.321  23.859
 617.68  32.438  23.828
 618.18  32.438  23.859
 618.68  32.321  23.889
 619.18  32.204  23.859
 619.68  32.438  23.889
 620.18  32.321  23.859
 620.68  32.438  23.859
 621.18  32.555  23.859
 621.68  32.321  23.889
 622.18  32.321  23.859
 622.68  32.438  23.859
 623.18  32.438  23.889
 623.68  32.321  23.859
 624.18  32.438  23.828
 624.68  32.438  23.828
 625.18  32.321  23.920
 625.68  32.321  23.859
 626.18  32.438  23.889
 626.68  32.555  23.859
 627.18  32.438  23.920
 627.68  32.438  23.889
 628.18  32.438  23.951
 628.68  32.438  23.859
 629.18  32.438  23.920
 629.68  32.555  23.889
 630.18  32.789  23.859
 630.68  32.321  23.859
 631.18  32.438  23.859
 631.68  32.438  23.889
 632.18  32.438  23.889
 632.68  32.438  23.859
 633.18  32.438  23.828
 633.68  32.555  23.859
 634.18  32.438  23.889
 634.68  32.438  23.859
 635.18  32.672  23.889
 635.68  32.438  23.889
 636.18  32.555  23.859
 636.68  32.555  23.920
 637.18  32.672  23.889
 637.68  32.438  23.889
 638.18  32.555  23.859
 638.68  32.438  23.889
 639.18  32.438  23.920
 639.68  32.555  23.828
 640.18  32.555  23.828
 640.68  32.672  23.859
 641.18  32.438  23.889
 641.68  32.438  23.859
 642.18  32.321  23.889
 642.68  32.555  23.889
 643.18  32.555  23.889
 643.68  32.438  23.859
 644.18  32.555  23.889
 644.68  32.555  23.889
 645.18  32.438  23.920
 645.68  32.438  23.889
 646.18  32.438  23.889
 646.68  32.438  23.859
 647.18  32.438  23.889
 647.68  32.555  23.859
 648.18  32.438  23.889
 648.68  32.555  23.859
 649.18  32.789  23.859
 649.68  32.438  23.889
 650.18  32.555  23.859
 650.68  32.555  23.859
 651.18  32.555  23.859
 651.68  32.555  23.859
 652.18  32.438  23.889
 652.68  32.672  23.859
 653.18  32.672  23.889
 653.68  32.555  23.859
 654.18  32.555  23.889
 654.68  32.438  23.889
 655.18  32.438  23.859
 655.68  32.555  23.859
 656.18  32.555  23.859
 656.68  32.555  23.889
 657.18  32.555  23.828
 657.68  32.672  23.889
 658.18  32.555  23.889
 658.68  32.555  23.859
 659.18  32.672  23.889
 659.68  32.672  23.859
 660.18  32.555  23.859
 660.68  32.438  23.859
 661.18  32.555  23.859
 661.68  32.438  23.889
 662.18  32.555  23.889
 662.68  32.555  23.859
 663.18  32.438  23.859
 663.68  32.672  23.889
 664.18  32.555  23.859
 664.68  32.672  23.828
 665.18  32.672  23.859
 665.68  32.555  23.920
 666.18  32.555  23.859
 666.68  32.438  23.889
 667.18  32.555  23.859
 667.68  32.672  23.889
 668.18  32.555  23.859
 668.68  32.555  23.859
 669.18  32.555  23.859
 669.68  32.672  23.859
 670.18  32.555  23.920
 670.68  32.672  23.920
 671.18  32.555  23.859
 671.68  32.672  23.889
 672.18  32.672  23.889
 672.68  32.789  23.889
 673.18  32.672  23.859
 673.68  32.555  23.859
 674.18  32.555  23.889
 674.68  32.555  23.859
 675.18  32.672  23.889
 675.68  32.555  23.859
 676.18  32.555  23.859
 676.68  32.555  23.859
 677.18  32.672  23.859
 677.68  32.672  23.889
 678.18  32.672  23.828
 678.68  32.672  23.920
 679.18  32.672  23.859
 679.68  32.672  23.889
 680.18  32.672  23.889
 680.68  32.672  23.920
 681.18  32.789  23.859
 681.68  32.906  23.889
 682.18  32.555  23.889
 682.68  32.672  23.828
 683.18  32.672  23.889
 683.68  32.672  23.859
 684.18  32.672  23.889
 684.68  32.672  23.859
 685.18  32.672  23.889
 685.68  32.672  23.889
 686.18  32.555  23.889
 686.68  32.906  23.889
 687.18  32.672  23.889
 687.68  32.672  23.889
 688.18  32.672  23.889
 688.68  32.672  23.859
 689.18  32.672  23.889
 689.68  32.672  23.889
 690.18  32.672  23.859
 690.68  32.672  23.859
 691.18  32.672  23.859
 691.68  32.672  23.828
 692.18  32.672  23.859
 692.68  32.672  23.889
 693.18  32.672  23.920
 693.68  32.789  23.920
 694.18  33.022  23.859
 694.68  32.672  23.889
 695.18  32.789  23.859
 695.68  32.906  23.828
 696.18  32.672  23.859
 696.68  32.789  23.889
 697.18  32.789  23.920
 697.68  32.789  23.859
 698.18  32.672  23.859
 698.68  32.789  23.920
 699.18  32.789  23.859
 699.68  32.672  23.859
 700.18  32.789  23.889
 700.68  32.672  23.889
 701.18  32.789  23.859
 701.68  32.672  23.859
 702.18  32.906  23.889
 702.68  32.789  23.859
 703.18  32.555  23.889
 703.68  32.672  23.859
 704.18  32.906  23.889
 704.68  32.672  23.889
 705.18  32.672  23.889
 705.68  32.789  23.889
 706.18  32.672  23.859
 706.68  32.906  23.889
 707.18  32.789  23.920
 707.68  32.906  23.889
 708.18  32.789  23.859
 708.68  32.789  23.889
 709.18  32.672  23.889
 709.68  32.789  23.889
 710.18  32.789  23.889
 710.68  32.789  23.889
 711.18  32.906  23.859
 711.68  32.672  23.889
 712.18  32.789  23.889
 712.68  32.906  23.859
 713.18  32.906  23.859
 713.68  32.789  23.859
 714.18  32.672  23.920
 714.68  32.672  23.889
 715.18  32.789  23.859
 715.68  32.672  23.859
 716.18  32.906  23.889
 716.68  32.789  23.859
 717.18  32.906  23.859
 717.68  32.906  23.859
 718.18  32.789  23.889
 718.68  32.789  23.828
 719.18  32.789  23.889
 719.68  32.789  23.859
 720.18  32.789  23.889
 720.68  32.906  23.889
 721.18  32.672  23.889
 721.68  32.789  23.889
 722.18  32.789  23.889
 722.68  32.789  23.889
 723.18  33.022  23.889
 723.68  33.022  23.889
 724.18  32.906  23.889
 724.68  32.789  23.889
 725.18  32.789  23.828
 725.68  32.906  23.889
 726.18  32.906  23.889
 726.68  32.906  23.889
 727.18  32.906  23.889
 727.68  33.022  23.889
 728.18  32.906  23.859
 728.69  32.906  23.889
 729.19  32.672  23.889
 729.69  32.906  23.828
 730.19  32.789  23.889
 730.69  32.906  23.859
 731.19  32.789  23.889
 731.69  32.906  23.889
 732.19  32.906  23.859
 732.69  32.906  23.859
 733.19  32.906  23.889
 733.69  32.906  23.889
 734.19  32.906  23.889
 734.69  32.906  23.859
 735.19  32.906  23.889
 735.69  32.906  23.889
 736.19  32.906  23.889
 736.69  32.906  23.828
 737.19  33.022  23.889
 737.69  32.906  23.889
 738.19  32.906  23.859
 738.69  32.906  23.889
 739.19  33.022  23.859
 739.69  33.022  23.889
 740.19  32.906  23.889
 740.69  32.906  23.920
 741.19  33.022  23.889
 741.69  32.906  23.889
 742.19  32.906  23.889
 742.69  33.022  23.920
 743.19  33.022  23.859
 743.69  33.022  23.859
 744.19  32.906  23.889
 744.69  33.022  23.889
 745.19  32.906  23.859
 745.69  33.022  23.889
 746.19  33.022  23.889
 746.69  33.022  23.920
 747.19  32.906  23.889
 747.69  33.022  23.859
 748.19  32.906  23.889
 748.69  32.906  23.889
 749.19  33.022  23.889
 749.69  33.022  23.859
 750.19  33.022  23.889
 750.69  33.022  23.828
 751.19  32.906  23.889
 751.69  33.022  23.889
 752.19  33.022  23.889
 752.69  33.139  23.859
 753.19  33.022  23.889
 753.69  33.139  23.859
 754.19  32.906  23.889
 754.69  32.906  23.889
 755.19  33.139  23.889
 755.69  33.022  23.889
 756.19  33.139  23.889
 756.69  32.906  23.889
 757.19  32.906  23.859
 757.69  33.139  23.920
 758.19  33.022  23.859
 758.69  33.139  23.920
 759.19  33.022  23.859
 759.69  33.139  23.859
 760.19  33.022  23.920
 760.69  33.139  23.920
 761.19  33.139  23.859
 761.69  33.139  23.889
 762.19  33.022  23.889
 762.69  33.022  23.889
 763.19  33.022  23.889
 763.69  33.022  23.889
 764.19  33.022  23.889
 764.69  33.139  23.889
 765.19  33.139  23.889
 765.69  33.022  23.920
 766.19  33.022  23.889
 766.69  33.139  23.889
 767.19  33.022  23.889
 767.69  33.022  23.889
 768.19  33.256  23.859
 768.69  33.139  23.920
 769.19  33.139  23.889
 769.69  33.022  23.920
 770.19  33.022  23.889
 770.69  33.256  23.889
 771.19  33.139  23.889
 771.69  33.256  23.920
 772.19  33.139  23.920
 772.69  33.139  23.889
 773.19  33.256  23.889
 773.69  33.139  23.889
 774.19  33.139  23.889
 774.69  33.373  23.889
 775.19  33.139  23.920
 775.69  33.256  23.920
 776.19  33.139  23.889
 776.69  33.139  23.889
 777.19  33.256  23.889
 777.69  33.139  23.859
 778.19  33.139  23.889
 778.69  33.139  23.889
 779.19  33.139  23.889
 779.69  33.139  23.889
 780.19  33.139  23.889
 780.69  33.139  23.889
 781.19  33.139  23.889
 781.69  33.022  23.889
 782.19  33.256  23.859
 782.69  33.256  23.889
 783.19  33.139  23.951
 783.69  33.256  23.889
 784.19  33.139  23.889
 784.69  33.256  23.920
 785.19  33.139  23.889
 785.69  33.373  23.889
 786.19  33.256  23.889
 786.69  33.139  23.889
 787.19  33.022  23.889
 787.69  33.139  23.889
 788.19  33.022  23.920
 788.69  33.256  23.889
 789.19  33.139  23.859
 789.69  33.139  23.859
 790.19  33.139  23.889
 790.69  33.139  23.889
 791.19  33.373  23.889
 791.69  33.256  23.951
 792.19  33.139  23.889
 792.69  33.256  23.951
 793.19  33.256  23.859
 793.69  33.256  23.920
 794.19  33.256  23.889
 794.69  33.256  23.889
 795.19  33.022  23.889
 795.69  33.490  23.889
 796.19  33.256  23.889
 796.69  33.256  23.889
 797.19  33.256  23.859
 797.69  33.139  23.859
 798.19  33.256  23.889
 798.69  33.139  23.859
 799.19  33.256  23.889
 799.69  33.139  23.920
 800.19  33.373  23.951
 800.69  33.373  23.889
 801.19  33.256  23.889
 801.69  33.256  23.859
 802.19  33.256  23.920
 802.69  33.256  23.859
 803.19  33.373  23.889
 803.69  33.256  23.920
 804.19  33.256  23.889
 804.69  33.256  23.920
 805.19  33.373  23.889
 805.69  33.373  23.889
 806.19  33.256  23.889
 806.69  33.373  23.889
 807.19  33.256  23.889
 807.69  33.256  23.889
 808.19  33.256  23.889
 808.69  33.256  23.889
 809.19  33.139  23.889
 809.69  33.139  23.920
 810.19  33.256  23.889
 810.69  33.373  23.889
 811.19  33.373  23.889
 811.69  33.256  23.889
 812.19  33.256  23.859
 812.69  33.373  23.889
 813.19  33.373  23.889
 813.69  33.256  23.920
 814.19  33.490  23.889
 814.69  33.373  23.920
 815.19  33.256  23.889
 815.69  33.256  23.889
 816.19  33.373  23.889
 816.69  33.256  23.889
 817.19  33.256  23.951
 817.69  33.256  23.920
 818.19  33.373  23.859
 818.69  33.490  23.920
 819.19  33.256  23.920
 819.69  33.373  23.951
 820.19  33.373  23.920
 820.69  33.256  23.889
 821.19  33.256  23.889
 821.69  33.373  23.920
 822.19  33.373  23.889
 822.69  33.256  23.889
 823.19  33.373  23.889
 823.69  33.139  23.889
 824.19  33.607  23.920
 824.69  33.373  23.859
 825.19  33.256  23.920
 825.69  33.373  23.889
 826.19  33.373  23.920
 826.69  33.373  23.859
 827.19  33.256  23.951
 827.69  33.490  23.889
 828.19  33.373  23.889
 828.69  33.373  23.920
 829.19  33.373  23.920
 829.69  33.607  23.859
 830.19  33.490  23.889
 830.70  33.490  23.889
 831.20  33.373  23.889
 831.70  33.373  23.920
 832.20  33.490  23.859
 832.70  33.373  23.889
 833.20  33.373  23.920
 833.70  33.373  23.889
 834.20  33.373  23.889
 834.70  33.490  23.889
 835.20  33.373  23.889
 835.70  33.373  23.889
 836.20  33.373  23.889
 836.70  33.373  23.920
 837.20  33.373  23.889
 837.70  33.373  23.889
 838.20  33.373  23.889
 838.70  33.373  23.920
 839.20  33.373  23.889
 839.70  33.373  23.889
 840.20  33.490  23.889
 840.70  33.724  23.889
 841.20  33.256  23.889
 841.70  33.490  23.920
 842.20  33.373  23.889
 842.70  33.490  23.859
 843.20  33.373  23.889
 843.70  33.607  23.859
 844.20  33.373  23.889
 844.70  33.373  23.889
 845.20  33.373  23.889
 845.70  33.373  23.889
 846.20  33.373  23.889
 846.70  33.256  23.920
 847.20  33.373  23.889
 847.70  33.373  23.859
 848.20  33.373  23.889
 848.70  33.490  23.951
 849.20  33.373  23.889
 849.70  33.490  23.889
 850.20  33.490  23.920
 850.70  33.373  23.889
 851.20  33.607  23.889
 851.70  33.373  23.859
 852.20  33.490  23.920
 852.70  33.490  23.889
 853.20  33.607  23.920
 853.70  33.256  23.859
 854.20  33.490  23.920
 854.70  33.490  23.920
 855.20  33.490  23.889
 855.70  33.490  23.920
 856.20  33.490  23.889
 856.70  33.607  23.889
 857.20  33.373  23.859
 857.70  33.256  23.889
 858.20  33.490  23.920
 858.70  33.256  23.889
 859.20  33.490  23.920
 859.70  33.373  23.889
 860.20  33.490  23.889
 860.70  33.373  23.889
 861.20  33.607  23.951
 861.70  33.373  23.920
 862.20  33.373  23.889
 862.70  33.490  23.889
 863.20  33.373  23.859
 863.70  33.490  23.920
 864.20  33.490  23.920
 864.70  33.490  23.889
 865.20  33.490  23.889
 865.70  33.607  23.920
 866.20  33.490  23.859
 866.70  33.490  23.889
 867.20  33.607  23.889
 867.70  33.490  23.889
 868.20  33.490  23.951
 868.70  33.490  23.889
 869.20  33.724  23.920
 869.70  33.490  23.889
 870.20  33.490  23.889
 870.70  33.490  23.889
 871.20  33.490  23.920
 871.70  33.490  23.951
 872.20  33.607  23.920
 872.70  33.490  23.920
 873.20  33.490  23.889
 873.70  33.607  23.889
 874.20  33.607  23.889
 874.70  33.490  23.889
 875.20  33.490  23.920
 875.70  33.490  23.889
 876.20  33.490  23.889
 876.70  33.607  23.889
 877.20  33.607  23.920
 877.70  33.607  23.889
 878.20  33.490  23.920
 878.70  33.490  23.920
 879.20  33.607  23.889
 879.70  33.373  23.889
 880.20  33.373  23.889
 880.70  33.607  23.920
 881.20  33.724  23.889
 881.70  33.607  23.889
 882.20  33.607  23.889
 882.70  33.490  23.920
 883.20  33.841  23.889
 883.70  33.490  23.889
 884.20  33.607  23.920
 884.70  33.490  23.920
 885.20  33.490  23.889
 885.70  33.607  23.920
 886.20  33.607  23.920
 886.70  33.373  23.889
 887.20  33.607  23.828
 887.70  33.490  23.889
 888.20  33.373  23.920
 888.70  33.607  23.920
 889.20  33.607  23.889
 889.70  33.607  23.859
 890.20  33.724  23.889
 890.70  33.490  23.889
 891.20  33.724  23.859
 891.70  33.607  23.920
 892.20  33.607  23.920
 892.70  33.490  23.828
 893.20  33.607  23.920
 893.70  33.607  23.889
 894.20  33.607  23.920
 894.70  33.607  23.920
 895.20  33.373  23.889
 895.70  33.607  23.920
 896.20  33.724  23.889
 896.70  33.724  23.889
 897.20  33.724  23.920
 897.70  33.607  23.859
 898.20  33.607  23.920
 898.70  33.373  23.920
 899.20  33.724  23.889
 899.70  33.607  23.889
 900.20  33.607  23.889
 900.70  33.490  23.920
 901.20  33.607  23.920
 901.70  33.607  23.920
 902.20  33.490  23.889
 902.70  33.607  23.920
 903.20  33.607  23.920
 903.70  33.724  23.889
 904.20  33.724  23.920
 904.70  33.607  23.889
 905.20  33.607  23.889
 905.70  33.724  23.920
 906.20  33.607  23.889
 906.70  33.724  23.889
 907.20  33.724  23.951
 907.70  33.724  23.889
 908.20  33.724  23.889
 908.70  33.607  23.920
 909.20  33.724  23.982
 909.70  33.607  23.889
 910.20  33.724  23.859
 910.70  33.841  23.920
 911.20  33.841  23.920
 911.70  33.724  23.920
 912.20  33.607  23.889
 912.70  33.724  23.920
 913.20  33.724  23.920
 913.70  33.607  23.889
 914.20  33.724  23.889
 914.70  33.957  23.889
 915.20  33.607  23.920
 915.70  33.724  23.920
 916.20  33.957  23.920
 916.70  33.724  23.920
 917.20  33.841  23.920
 917.70  33.841  23.889
 918.20  33.607  23.920
 918.70  33.724  23.889
 919.20  33.841  23.920
 919.70  33.724  23.920
 920.20  33.841  23.859
 920.70  33.841  23.920
 921.20  33.841  23.920
 921.70  33.724  23.920
 922.20  33.841  23.889
 922.70  33.724  23.920
 923.20  33.724  23.889
 923.70  33.841  23.920
 924.20  33.724  23.920
 924.70  33.724  23.920
 925.20  33.724  23.920
 925.70  33.724  23.920
 926.20  33.607  23.920
 926.70  33.724  23.920
 927.20  33.841  23.889
 927.70  33.841  23.889
 928.20  33.724  23.920
 928.70  33.607  23.889
 929.20  33.724  23.889
 929.70  33.841  23.859
 930.20  33.724  23.920
 930.70  33.607  23.920
 931.20  33.724  23.920
 931.70  33.724  23.889
 932.20  33.724  23.889
 932.70  33.724  23.920
 933.20  33.724  23.951
 933.70  33.724  23.889
 934.20  33.841  23.920
 934.70  33.841  23.889
 935.20  33.841  23.889
 935.70  33.724  23.920
 936.20  33.607  23.889
 936.70  33.724  23.920
 937.20  33.724  23.889
 937.70  33.724  23.889
 938.20  33.841  23.920
 938.70  33.841  23.920
 939.20  33.841  23.889
 939.70  33.841  23.920
 940.20  33.724  23.920
 940.70  33.841  23.889
 941.20  33.841  23.889
 941.70  33.841  23.920
 942.20  33.724  23.859
 942.70  33.841  23.920
 943.20  33.841  23.920
 943.70  33.724  23.920
 944.21  33.724  23.889
 944.71  33.841  23.920
 945.21  33.724  23.920
 945.71  33.957  23.920
 946.21  33.841  23.889
 946.71  33.724  23.951
 947.21  33.841  23.889
 947.71  33.724  23.920
 948.21  33.841  23.889
 948.71  33.841  23.920
 949.21  33.724  23.920
 949.71  33.724  23.889
 950.21  33.841  23.920
 950.71  33.724  23.951
 951.21  33.607  23.889
 951.71  33.841  23.920
 952.21  33.841  23.920
 952.71  34.074  23.920
 953.21  33.724  23.920
 953.71  33.841  23.982
 954.21  33.841  23.920
 954.71  33.957  23.920
 955.21  33.841  23.920
 955.71  33.841  23.889
 956.21  33.957  23.920
 956.71  33.607  23.889
 957.21  33.841  23.920
 957.71  34.074  23.920
 958.21  33.841  23.951
 958.71  33.841  23.920
 959.21  33.841  23.889
 959.71  33.841  23.889
 960.21  33.957  23.920
 960.71  33.957  23.951
 961.21  33.841  23.889
 961.71  33.841  23.889
 962.21  33.841  23.920
 962.71  33.841  23.982
 963.21  33.957  23.920
 963.71  34.074  23.920
 964.21  33.841  23.920
 964.71  33.957  23.951
 965.21  33.607  23.920
 965.71  33.957  23.920
 966.21  33.841  23.920
 966.71  33.841  23.920
 967.21  33.724  23.920
 967.71  33.957  23.889
 968.21  33.841  23.920
 968.71  33.957  23.920
 969.21  33.724  23.951
 969.71  33.841  23.920
 970.21  33.724  23.920
 970.71  34.074  23.920
 971.21  33.841  23.889
 971.71  33.841  23.920
 972.21  33.841  23.889
 972.71  33.957  23.920
 973.21  33.957  23.920
 973.71  33.841  23.920
 974.21  33.841  23.920
 974.71  33.841  23.951
 975.21  33.841  23.889
 975.71  33.841  23.889
 976.21  33.841  23.920
 976.71  33.841  23.889
 977.21  33.957  23.920
 977.71  33.957  23.920
 978.21  33.957  23.920
 978.71  33.841  23.920
 979.21  34.074  23.920
 979.71  33.957  23.889
 980.21  33.841  23.920
 980.71  34.074  23.889
 981.21  33.957  23.889
 981.71  33.957  23.951
 982.21  33.957  23.951
 982.71  33.841  23.951
 983.21  34.074  23.920
 983.71  33.957  23.889
 984.21  33.841  23.920
 984.71  33.957  23.889
 985.21  34.074  23.889
 985.71  33.957  23.951
 986.21  33.957  23.920
 986.71  33.957  23.951
 987.21  33.957  23.920
 987.71  34.074  23.951
 988.21  33.724  23.889
 988.71  33.957  23.920
 989.21  33.841  23.920
 989.71  33.957  23.920
 990.21  33.957  23.920
 990.71  33.841  23.920
 991.21  33.841  23.951
 991.71  33.957  23.920
 992.21  33.957  23.920
 992.71  34.191  23.889
 993.21  34.074  23.920
 993.71  33.957  23.920
 994.21  33.957  23.951
 994.71  33.957  23.889
 995.21  34.074  23.920
 995.71  33.957  23.920
 996.21  33.957  23.920
 996.71  33.957  23.889
 997.21  33.957  23.951
 997.71  33.957  23.920
 998.21  33.957  23.920
 998.71  33.957  23.920
 999.21  33.724  23.920
 999.71  34.074  23.920
1000.21  33.957  23.920
1000.71  33.957  23.920
1001.21  34.191  23.920
1001.71  33.957  23.951
1002.21  33.957  23.920
1002.71  33.957  23.889
1003.21  34.074  23.920
1003.71  34.074  23.920
1004.21  33.957  23.920
1004.71  33.841  23.920
1005.21  33.957  23.920
1005.71  33.957  23.920
1006.21  33.957  23.920
1006.71  34.074  23.889
1007.21  34.074  23.889
1007.71  33.957  23.920
1008.21  34.074  23.920
1008.71  33.957  23.920
1009.21  34.074  23.920
1009.71  33.957  23.920
1010.21  34.074  23.920
1010.71  34.074  23.920
1011.21  33.957  23.951
1011.71  34.074  23.920
1012.21  34.308  23.920
1012.71  34.191  23.889
1013.21  33.957  23.920
1013.71  33.957  23.951
1014.21  33.957  23.889
1014.71  34.074  23.951
1015.21  34.074  23.920
1015.71  33.957  23.920
1016.21  34.074  23.920
1016.71  34.191  23.982
1017.21  34.191  23.920
1017.71  34.074  23.920
1018.21  34.074  23.951
1018.71  34.191  23.920
1019.21  34.074  23.920
1019.71  34.074  23.920
1020.21  33.957  23.951
1020.71  33.957  23.951
1021.21  34.074  23.889
1021.71  34.074  23.982
1022.21  34.074  23.920
1022.71  34.074  23.951
1023.21  34.308  23.920
1023.71  34.074  23.920
1024.21  34.074  23.951
1024.71  34.074  23.889
1025.21  34.074  23.920
1025.71  33.957  23.920
1026.21  34.191  23.951
1026.71  34.191  23.920
1027.21  33.957  23.920
1027.71  34.074  23.920
1028.21  34.074  23.951
1028.71  33.957  23.920
1029.21  34.074  23.920
1029.71  34.191  23.951
1030.21  34.191  23.920
1030.71  33.957  23.920
1031.21  34.074  23.920
1031.71  34.074  23.951
1032.21  34.074  23.920
1032.71  34.191  23.951
1033.21  34.074  23.920
1033.71  34.191  23.920
1034.21  34.074  23.951
1034.71  34.074  23.951
1035.21  34.074  23.920
1035.71  34.074  23.951
1036.21  34.191  23.920
1036.71  33.957  23.951
1037.21  34.074  23.920
1037.71  34.191  23.951
1038.21  34.074  23.920
1038.71  34.074  23.920
1039.21  34.074  23.920
1039.71  33.957  23.920
1040.21  34.074  23.951
1040.71  34.308  23.920
1041.21  34.191  24.043
1041.71  34.191  23.889
1042.21  34.074  23.889
1042.71  34.074  23.920
1043.21  34.074  23.951
1043.71  34.191  23.920
1044.21  34.191  23.982
1044.71  34.191  23.920
1045.21  34.191  24.013
1045.71  34.191  23.951
1046.21  34.191  23.951
1046.71  34.191  23.920
1047.21  34.074  23.920
1047.71  34.308  23.982
1048.21  34.308  23.920
1048.71  34.074  23.920
1049.21  34.191  23.951
1049.71  34.308  23.951
1050.21  34.074  23.920
1050.71  34.074  23.951
1051.21  34.074  23.920
1051.71  34.191  23.920
1052.21  34.191  23.982
1052.71  34.308  23.951
1053.21  34.074  23.920
1053.71  34.191  23.951
1054.21  34.308  23.951
1054.71  34.074  23.920
1055.21  34.308  23.920
1055.71  34.191  23.920
1056.21  34.074  23.951
1056.71  34.191  23.920
1057.21  34.191  23.920
1057.71  34.191  23.920
1058.21  34.191  23.920
1058.71  34.191  23.889
1059.21  34.191  23.920
1059.71  34.074  23.920
1060.21  34.191  23.920
1060.71  34.191  23.889
1061.21  34.191  23.889
1061.71  34.191  23.920
1062.21  34.542  23.951
1062.71  34.191  23.951
1063.21  34.308  23.920
1063.71  34.191  23.920
1064.21  34.308  23.951
1064.71  34.074  23.859
1065.21  34.191  23.920
1065.71  34.191  23.920
1066.21  33.841  23.951
1066.71  34.191  23.920
1067.21  34.308  23.951
1067.71  34.191  23.889
1068.22  34.191  23.951
1068.72  34.191  23.951
1069.22  34.191  23.920
1069.72  34.308  23.951
1070.22  34.308  23.920
1070.72  34.191  23.951
1071.22  34.074  23.951
1071.72  34.308  23.951
1072.22  34.191  23.889
1072.72  34.308  23.920
1073.22  34.074  23.920
1073.72  34.191  23.920
1074.22  34.308  23.920
1074.72  34.425  23.920
1075.22  34.308  23.982
1075.72  34.308  23.920
1076.22  34.308  23.951
1076.72  34.308  23.951
1077.22  34.425  23.951
1077.72  34.308  23.951
1078.22  34.308  23.982
1078.72  34.308  23.920
1079.22  34.308  23.920
1079.72  34.308  23.920
1080.22  34.191  23.920
1080.72  34.425  23.889
1081.22  34.308  23.920
1081.72  34.308  23.951
1082.22  34.308  23.920
1082.72  34.191  23.920
1083.22  34.308  23.889
1083.72  34.308  23.951
1084.22  34.308  23.951
1084.72  34.191  23.920
1085.22  34.191  23.982
1085.72  34.308  23.951
1086.22  34.308  23.951
1086.72  34.074  23.920
1087.22  34.191  23.920
1087.72  34.191  23.951
1088.22  34.308  23.920
1088.72  34.425  23.920
1089.22  34.308  23.920
1089.72  34.308  23.951
1090.22  34.425  23.951
1090.72  34.308  23.920
1091.22  34.425  23.951
1091.72  34.308  23.920
1092.22  34.191  23.951
1092.72  34.191  23.951
1093.22  34.308  23.951
1093.72  34.191  23.920
1094.22  34.191  23.920
1094.72  34.308  23.920
1095.22  34.308  23.889
1095.72  34.191  23.920
1096.22  34.308  23.920
1096.72  34.308  23.951
1097.22  34.308  23.951
1097.72  34.074  23.982
1098.22  34.308  23.920
1098.72  34.191  23.951
1099.22  34.542  23.889
1099.72  34.425  23.951
1100.22  34.308  23.920
1100.72  34.308  23.951
1101.22  34.425  23.920
1101.72  34.308  23.920
1102.22  34.542  23.951
1102.72  34.308  23.951
1103.22  34.425  23.920
1103.72  34.542  23.920
1104.22  34.308  23.920
1104.72  34.308  23.951
1105.22  34.308  23.920
1105.72  34.425  24.013
1106.22  34.425  23.889
1106.72  34.425  23.951
1107.22  34.191  23.951
1107.72  34.425  23.951
1108.22  34.308  23.951
1108.72  34.425  23.951
1109.22  34.308  23.951
1109.72  34.425  23.951
1110.22  34.308  23.951
1110.72  34.308  23.982
1111.22  34.308  23.951
1111.72  34.191  23.920
1112.22  34.308  23.920
1112.72  34.308  23.920
1113.22  34.425  24.013
1113.72  34.425  23.982
1114.22  34.425  23.920
1114.72  34.542  23.951
1115.22  34.308  23.951
1115.72  34.308  23.951
1116.22  34.425  23.920
1116.72  34.425  23.951
1117.22  34.308  23.951
1117.72  34.425  23.951
1118.22  34.425  23.951
1118.72  34.308  23.920
1119.22  34.542  23.920
1119.72  34.308  23.920
1120.22  34.425  23.951
1120.72  34.308  23.920
1121.22  34.308  23.951
1121.72  34.191  23.951
1122.22  34.308  23.920
1122.72  34.425  23.951
1123.22  34.542  23.951
1123.72  34.308  23.951
1124.22  34.308  23.920
1124.72  34.425  23.889
1125.22  34.308  23.951
1125.72  34.425  23.889
1126.22  34.308  23.920
1126.72  34.425  23.951
1127.22  34.425  23.951
1127.72  34.425  23.951
1128.22  34.425  23.920
1128.72  34.308  23.920
1129.22  34.308  23.920
1129.72  34.191  23.920
1130.22  34.308  23.951
1130.72  34.308  23.951
1131.22  34.542  23.951
1131.72  34.191  23.920
1132.22  34.425  23.920
1132.72  34.542  23.920
1133.22  34.308  23.951
1133.72  34.425  23.920
1134.22  34.542  23.951
1134.72  34.425  23.920
1135.22  34.542  23.920
1135.72  34.308  23.951
1136.22  34.308  23.920
1136.72  34.542  23.920
1137.22  34.425  23.920
1137.72  34.308  23.982
1138.22  34.542  23.951
1138.72  34.542  23.920
1139.22  34.425  23.951
1139.72  34.659  23.920
1140.22  34.425  23.920
1140.72  34.542  23.951
1141.22  34.542  23.982
1141.72  34.542  23.982
1142.22  34.308  23.951
1142.72  34.542  23.951
1143.22  34.659  23.951
1143.72  34.542  23.982
1144.22  34.425  23.920
1144.72  34.425  24.013
1145.22  34.425  23.951
1145.72  34.425  23.920
1146.22  34.425  23.920
1146.72  34.425  23.920
1147.22  34.425  23.920
1147.72  34.425  23.951
1148.22  34.542  23.951
1148.72  34.542  23.951
1149.22  34.425  23.889
1149.72  34.425  23.920
1150.22  34.659  23.920
1150.72  34.542  23.951
1151.22  34.425  23.951
1151.72  34.425  23.982
1152.22  34.542  23.920
1152.72  34.425  23.951
1153.22  34.425  23.951
1153.72  34.542  24.013
1154.22  34.425  23.889
1154.72  34.425  23.951
1155.22  34.308  23.951
1155.72  34.425  23.920
1156.22  34.425  23.982
1156.72  34.425  23.982
1157.22  34.542  23.951
1157.72  34.425  23.951
1158.22  34.425  23.951
1158.72  34.425  23.920
1159.22  34.425  23.951
1159.72  34.425  23.889
1160.22  34.425  23.920
1160.72  34.308  23.951
1161.22  34.542  23.920
1161.72  34.542  23.920
1162.22  34.308  23.920
1162.72  34.425  23.951
1163.22  34.308  23.920
1163.72  34.542  23.982
1164.22  34.425  23.951
1164.72  34.542  23.951
1165.22  34.542  23.982
1165.72  34.542  23.920
1166.22  34.542  23.951
1166.72  34.542  23.951
1167.22  34.542  23.982
1167.72  34.542  23.951
1168.22  34.542  23.951
1168.72  34.425  23.951
1169.22  34.542  23.951
1169.72  34.542  23.951
1170.22  34.308  23.951
1170.72  34.542  23.920
1171.22  34.542  23.951
1171.72  34.542  23.951
1172.22  34.308  23.982
1172.72  34.425  23.920
1173.22  34.542  23.920
1173.72  34.308  23.951
1174.22  34.542  23.982
1174.72  34.659  23.951
1175.22  34.542  23.951
1175.72  34.659  23.951
1176.22  34.542  23.920
1176.72  34.542  23.951
1177.22  34.542  23.951
1177.72  34.542  23.920
1178.22  34.425  23.951
1178.72  34.542  23.951
1179.22  34.425  23.920
1179.72  34.542  23.951
1180.22  34.659  23.951
1180.72  34.542  23.951
1181.23  34.425  23.951
1181.73  34.425  23.951
1182.23  34.425  23.951
1182.73  34.659  23.951
1183.23  34.542  23.951
1183.73  34.542  23.951
1184.23  34.659  23.951
1184.73  34.425  23.951
1185.23  34.542  23.951
1185.73  34.425  23.951
1186.23  34.542  23.982
1186.73  34.542  23.951
1187.23  34.308  23.951
1187.73  34.542  23.920
1188.23  34.308  23.951
1188.73  34.542  23.951
1189.23  34.425  23.951
1189.73  34.542  23.982
1190.23  34.425  23.951
1190.73  34.542  23.951
1191.23  34.542  23.951
1191.73  34.542  23.951
1192.23  34.659  23.920
1192.73  34.659  23.951
1193.23  34.542  23.982
1193.73  34.659  23.951
1194.23  34.542  23.951
1194.73  34.542  23.951
1195.23  34.542  23.982
1195.73  34.542  23.920
1196.23  34.542  23.951
1196.73  34.659  23.951
1197.23  34.659  23.951
1197.73  34.659  23.951
1198.23  34.659  23.982
1198.73  34.542  23.920
1199.23  34.659  24.013
1199.73  34.659  23.951
1200.23  34.542  23.951
1200.73  34.542  23.920
1201.23  34.542  23.951
1201.73  34.542  23.982
1202.23  34.542  23.920
1202.73  34.308  23.951
1203.23  34.659  23.951
1203.73  34.659  23.951
1204.23  34.542  23.982
1204.73  34.542  23.951
1205.23  34.659  23.889
1205.73  34.425  23.951
1206.23  34.776  23.951
1206.73  34.659  24.013
1207.23  34.659  23.951
1207.73  34.659  23.951
1208.23  34.659  23.920
1208.73  34.542  23.920
1209.23  34.659  23.951
1209.73  34.542  23.920
1210.23  34.425  23.920
1210.73  34.542  23.951
1211.23  34.542  23.920
1211.73  34.659  23.951
1212.23  34.542  23.951
1212.73  34.542  23.920
1213.23  34.659  23.889
1213.73  34.542  23.889
1214.23  34.542  23.951
1214.73  34.659  23.951
1215.23  34.776  23.951
1215.73  34.659  23.951
1216.23  34.659  23.951
1216.73  34.425  23.951
1217.23  34.542  23.951
1217.73  34.542  23.982
1218.23  34.659  23.982
1218.73  34.659  23.951
1219.23  34.776  23.951
1219.73  34.425  23.951
1220.23  34.542  23.951
1220.73  34.425  23.951
1221.23  34.659  23.951
1221.73  34.659  23.982
1222.23  34.659  23.982
1222.73  34.659  23.982
1223.23  34.659  23.951
1223.73  34.542  23.982
1224.23  34.542  23.951
1224.73  34.542  23.951
1225.23  34.659  23.951
1225.73  34.776  23.982
1226.23  34.659  23.951
1226.73  34.659  23.951
1227.23  34.659  23.982
1227.73  34.542  23.951
1228.23  34.776  23.951
1228.73  34.659  23.982
1229.23  34.776  23.920
1229.73  34.425  23.951
1230.23  34.542  23.920
1230.73  34.542  23.951
1231.23  34.659  23.982
1231.73  34.659  23.951
1232.23  34.659  23.951
1232.73  34.776  23.982
1233.23  34.659  23.951
1233.73  34.542  23.951
1234.23  34.776  23.951
1234.73  34.659  23.982
1235.23  34.659  23.951
1235.73  34.542  23.982
1236.23  34.659  23.951
1236.73  34.659  23.951
1237.23  34.659  23.951
1237.73  34.659  23.920
1238.23  34.776  23.951
1238.73  34.659  23.951
1239.23  34.659  23.982
1239.73  34.659  23.920
1240.23  34.776  23.920
1240.73  34.659  23.951
1241.23  34.776  23.951
1241.73  34.776  23.951
1242.23  34.659  23.982
1242.73  34.659  23.951
1243.23  34.659  23.982
1243.73  34.776  23.920
1244.23  34.659  23.951
1244.73  34.659  23.982
1245.23  34.659  23.951
1245.73  34.659  23.951
1246.23  34.659  23.982
1246.73  34.542  23.951
1247.23  34.659  23.982
1247.73  34.776  23.982
1248.23  34.659  23.951
1248.73  34.892  23.951
1249.23  35.005  23.920
1249.73  34.659  23.982
1250.23  34.542  23.982
1250.73  34.776  24.013
1251.23  34.542  23.982
1251.73  34.659  23.951
1252.23  34.776  23.951
1252.73  34.659  23.951
1253.23  34.776  23.982
1253.73  35.005  24.013
1254.23  34.659  23.982
1254.73  34.776  23.982
1255.23  34.659  23.951
1255.73  34.659  23.951
1256.23  34.892  23.951
1256.73  34.776  23.951
1257.23  34.542  23.982
1257.73  34.659  23.951
1258.23  34.659  23.982
1258.73  34.776  23.951
1259.23  34.776  23.951
1259.73  34.659  24.013
1260.23  34.776  23.982
1260.73  34.892  24.043
1261.23  34.776  23.951
1261.73  34.659  23.982
1262.23  34.776  23.951
1262.73  34.776  23.920
1263.23  34.892  23.982
1263.73  34.659  23.982
1264.23  34.659  23.951
1264.73  34.892  23.951
1265.23  34.659  23.982
1265.73  34.659  23.951
1266.23  34.659  23.951
1266.73  34.659  24.013
1267.23  34.776  23.951
1267.73  34.776  23.982
1268.23  34.659  23.951
1268.73  34.892  23.982
1269.23  34.776  23.982
1269.73  34.659  23.920
1270.23  34.659  24.013
1270.73  34.659  23.982
1271.23  34.892  23.951
1271.73  34.892  23.920
1272.23  34.776  23.982
1272.73  34.659  23.951
1273.23  34.776  23.951
1273.73  34.659  23.920
1274.23  34.776  23.982
1274.73  34.892  23.951
1275.23  34.892  23.951
1275.73  34.542  23.982
1276.23  34.776  23.982
1276.73  34.776  23.982
1277.23  34.659  23.951
1277.73  34.776  23.951
1278.23  34.892  23.951
1278.73  34.892  23.982
1279.23  34.776  23.951
1279.73  34.892  24.013
1280.23  34.659  23.951
1280.73  34.892  23.951
1281.23  34.659  23.951
1281.73  34.892  23.982
1282.23  34.892  23.951
1282.73  34.892  23.982
1283.23  35.005  23.951
1283.73  34.892  23.951
1284.23  34.776  23.951
1284.73  34.776  23.982
1285.23  34.776  23.982
1285.73  34.892  23.951
1286.23  34.659  23.982
1286.73  34.776  23.951
1287.23  34.659  23.951
1287.73  34.776  23.982
1288.23  34.776  23.951
1288.73  34.776  24.013
1289.23  34.659  23.951
1289.73  34.659  23.951
1290.23  34.892  23.951
1290.73  34.776  23.982
1291.23  34.776  23.982
1291.73  34.776  23.982
1292.23  34.892  23.951
1292.73  34.892  23.951
1293.23  34.776  23.982
1293.73  34.776  23.951
1294.24  34.776  23.951
1294.74  35.005  23.982
1295.24  34.776  23.951
1295.74  34.892  23.951
1296.24  34.892  23.951
1296.74  34.776  23.982
1297.24  34.776  23.951
1297.74  34.776  23.982
1298.24  34.776  23.951
1298.74  34.659  23.982
1299.24  34.892  23.951
1299.74  34.776  23.982
1300.24  34.776  23.982
1300.74  34.892  23.982
1301.24  34.776  23.951
1301.74  34.776  23.982
1302.24  34.892  23.982
1302.74  34.892  23.951
1303.24  34.892  23.982
1303.74  34.892  23.982
1304.24  34.776  23.951
1304.74  34.776  23.920
1305.24  34.776  23.982
1305.74  34.776  23.951
1306.24  34.776  23.951
1306.74  34.776  23.982
1307.24  34.892  23.920
1307.74  35.005  23.889
1308.24  34.659  23.951
1308.74  34.892  23.951
1309.24  34.776  24.013
1309.74  34.776  23.982
1310.24  34.892  23.951
1310.74  34.776  23.951
1311.24  34.892  23.951
1311.74  35.005  23.951
1312.24  34.892  23.982
1312.74  34.776  23.982
1313.24  34.892  23.951
1313.74  34.892  24.013
1314.24  35.005  23.982
1314.74  34.892  23.982
1315.24  34.776  23.982
1315.74  34.892  23.982
1316.24  34.892  24.013
1316.74  34.892  23.982
1317.24  34.892  23.951
1317.74  34.892  23.982
1318.24  34.659  23.951
1318.74  34.776  23.982
1319.24  34.892  23.982
1319.74  34.892  23.951
1320.24  35.005  23.982
1320.74  34.776  23.951
1321.24  34.776  23.982
1321.74  34.892  23.951
1322.24  34.892  23.951
1322.74  34.776  23.982
1323.24  35.005  23.951
1323.74  34.659  23.982
1324.24  35.005  23.982
1324.74  34.892  23.951
1325.24  34.892  23.982
1325.74  35.005  23.951
1326.24  35.005  23.951
1326.74  34.776  23.982
1327.24  35.069  23.982
1327.74  34.776  23.951
1328.24  34.776  23.982
1328.74  34.892  23.951
1329.24  35.005  24.013
1329.74  34.892  23.982
1330.24  34.892  24.013
1330.74  34.892  23.982
1331.24  34.892  23.982
1331.74  34.892  23.982
1332.24  35.005  24.013
1332.74  34.776  23.982
1333.24  34.892  23.982
1333.74  34.892  23.982
1334.24  35.005  23.982
1334.74  34.776  23.982
1335.24  34.892  23.982
1335.74  34.892  23.982
1336.24  35.005  23.982
1336.74  34.776  23.982
1337.24  34.776  23.982
1337.74  34.892  24.013
1338.24  34.892  24.013
1338.74  34.892  23.982
1339.24  35.005  23.951
1339.74  34.892  24.013
1340.24  34.892  23.982
1340.74  34.892  23.982
1341.24  34.892  24.013
1341.74  35.005  23.982
1342.24  35.005  23.982
1342.74  34.892  23.982
1343.24  34.892  24.013
1343.74  35.005  24.013
1344.24  34.892  23.951
1344.74  35.005  23.982
1345.24  35.005  23.982
1345.74  34.892  23.982
1346.24  34.892  23.951
1346.74  35.005  23.951
1347.24  34.892  23.951
1347.74  35.005  23.982
1348.24  35.005  23.951
1348.74  34.776  23.982
1349.24  34.892  23.982
1349.74  34.776  23.982
1350.24  35.005  23.982
1350.74  35.005  23.982
1351.24  34.892  23.982
1351.74  34.892  23.982
1352.24  35.005  24.013
1352.74  34.776  23.982
1353.24  34.892  23.982
1353.74  35.005  24.013
1354.24  34.892  23.982
1354.74  35.005  23.951
1355.24  35.005  23.982
1355.74  35.005  24.013
1356.24  35.005  23.982
1356.74  34.776  23.982
1357.24  34.892  23.982
1357.74  35.005  23.982
1358.24  34.892  23.982
1358.74  35.005  23.951
1359.24  34.892  24.013
1359.74  35.005  23.982
1360.24  35.005  23.951
1360.74  34.892  23.951
1361.24  35.005  23.951
1361.74  34.892  24.043
1362.24  35.005  23.982
1362.74  35.005  23.982
1363.24  34.892  23.982
1363.74  34.892  23.982
1364.24  34.892  23.951
1364.74  35.005  23.982
1365.24  35.005  23.982
1365.74  35.005  24.013
1366.24  35.069  23.951
1366.74  35.005  24.013
1367.24  34.892  23.982
1367.74  35.005  24.013
1368.24  35.005  23.982
1368.74  35.005  23.951
1369.24  35.005  23.982
1369.74  35.005  23.982
1370.24  35.005  23.982
1370.74  35.005  23.982
1371.24  35.069  23.982
1371.74  35.005  23.982
1372.24  35.005  24.013
1372.74  34.892  24.013
1373.24  35.069  24.013
1373.74  35.005  23.920
1374.24  34.892  24.013
1374.74  35.005  23.982
1375.24  35.005  23.982
1375.74  35.005  24.043
1376.24  35.069  24.013
1376.74  35.005  23.982
1377.24  35.069  24.013
1377.74  35.005  24.013
1378.24  35.069  23.982
1378.74  35.005  24.013
1379.24  35.005  23.951
1379.74  35.005  23.951
1380.24  35.005  23.951
1380.74  35.005  23.982
1381.24  35.005  23.982
1381.74  34.892  24.013
1382.24  35.005  24.043
1382.74  35.069  23.951
1383.24  35.069  23.951
1383.74  35.069  24.013
1384.24  35.133  23.982
1384.74  35.069  24.013
1385.24  35.005  24.013
1385.74  35.069  24.013
1386.24  34.776  24.013
1386.74  35.069  23.951
1387.24  35.005  23.982
1387.74  35.069  23.951
1388.24  35.005  23.982
1388.74  35.005  24.013
1389.24  35.005  24.013
1389.74  35.005  23.982
1390.24  35.005  24.013
1390.74  35.005  23.982
1391.24  34.892  24.013
1391.74  35.005  24.013
1392.24  35.005  24.013
1392.74  35.069  23.982
1393.24  34.892  23.982
1393.74  35.069  24.013
1394.24  35.005  23.982
1394.74  34.892  23.951
1395.24  35.005  23.982
1395.74  35.005  23.982
1396.24  35.005  23.951
1396.74  35.069  24.013
1397.24  35.069  23.982
1397.74  35.069  23.982
1398.24  35.005  23.982
1398.74  35.069  23.982
1399.24  35.069  23.982
1399.74  35.005  23.982
1400.24  35.005  23.982
1400.74  35.069  23.951
1401.24  35.005  24.013
1401.74  35.133  23.982
1402.24  35.133  23.982
1402.74  35.005  23.982
1403.24  35.005  23.982
1403.74  35.005  23.982
1404.24  35.069  24.013
1404.74  35.005  23.982
1405.24  35.069  23.982
1405.74  35.005  24.013
1406.24  35.005  24.013
1406.74  35.005  23.982
1407.25  35.069  23.982
1407.75  35.069  23.982
1408.25  35.069  24.013
1408.75  34.892  23.982
1409.25  35.069  24.013
1409.75  35.197  24.043
1410.25  35.133  23.982
1410.75  35.069  23.982
1411.25  35.069  24.013
1411.75  35.069  24.074
1412.25  35.069  24.013
1412.75  35.005  24.013
1413.25  35.133  24.013
1413.75  35.005  24.013
1414.25  35.005  24.013
1414.75  35.133  24.013
1415.25  35.069  24.013
1415.75  35.133  24.013
1416.25  35.069  23.982
1416.75  35.069  23.982
1417.25  35.069  24.013
1417.75  35.069  23.982
1418.25  35.005  23.982
1418.75  35.069  23.982
1419.25  35.069  24.013
1419.75  35.133  23.982
1420.25  35.069  23.982
1420.75  35.069  23.982
1421.25  35.069  24.013
1421.75  35.197  23.951
1422.25  35.005  24.013
1422.75  35.069  24.013
1423.25  35.069  23.982
1423.75  35.133  24.013
1424.25  35.069  23.982
1424.75  35.069  24.013
1425.25  35.005  23.982
1425.75  35.005  24.013
1426.25  35.069  23.982
1426.75  35.005  23.951
1427.25  35.069  23.982
1427.75  35.005  24.043
1428.25  35.133  23.982
1428.75  35.069  24.013
1429.25  35.069  23.982
1429.75  35.133  24.013
1430.25  35.197  24.013
1430.75  35.069  24.013
1431.25  35.005  23.951
1431.75  35.069  24.013
1432.25  35.133  24.013
1432.75  35.133  24.013
1433.25  35.069  24.013
1433.75  35.133  24.013
1434.25  35.069  23.951
1434.75  35.069  24.013
1435.25  35.005  23.951
1435.75  35.133  23.982
1436.25  35.005  24.013
1436.75  35.069  23.951
1437.25  35.005  23.951
1437.75  35.133  24.013
1438.25  35.197  24.043
1438.75  35.069  24.013
1439.25  35.069  24.013
1439.75  35.005  24.013
1440.25  35.005  24.013
1440.75  35.069  24.013
1441.25  35.069  24.013
1441.75  35.069  23.982
1442.25  35.005  23.982
1442.75  35.069  24.013
1443.25  35.133  24.013
1443.75  35.261  23.982
1444.25  35.133  24.043
1444.75  35.261  24.013
1445.25  35.069  23.982
1445.75  35.133  24.013
1446.25  35.005  23.982
1446.75  35.005  23.982
1447.25  35.069  23.982
1447.75  35.069  23.982
1448.25  35.133  24.043
1448.75  35.069  23.982
1449.25  35.069  24.043
1449.75  35.069  23.982
1450.25  35.069  23.982
1450.75  35.069  23.982
1451.25  35.069  24.074
1451.75  35.197  23.982
1452.25  35.069  24.013
1452.75  35.069  23.951
1453.25  35.069  23.982
1453.75  35.133  24.013
1454.25  35.133  24.013
1454.75  34.892  23.982
1455.25  35.133  24.013
1455.75  35.069  24.013
1456.25  35.069  24.013
1456.75  35.069  23.982
1457.25  35.133  23.982
1457.75  35.133  23.982
1458.25  35.197  24.013
1458.75  35.133  24.013
1459.25  35.133  23.982
1459.75  35.133  23.982
1460.25  35.133  23.982
1460.75  35.133  23.982
1461.25  35.069  24.013
1461.75  35.133  24.013
1462.25  35.133  24.013
1462.75  35.133  24.013
1463.25  35.069  24.013
1463.75  35.133  23.982
1464.25  35.133  24.043
1464.75  35.197  24.013
1465.25  35.069  24.013
1465.75  35.133  24.013
1466.25  35.133  24.013
1466.75  35.069  23.982
1467.25  35.197  23.982
1467.75  35.197  24.013
1468.25  35.133  24.013
1468.75  35.069  24.013
1469.25  35.133  24.013
1469.75  35.069  23.951
1470.25  35.133  24.013
1470.75  35.069  23.982
1471.25  35.069  24.043
1471.75  35.133  23.982
1472.25  35.069  24.013
1472.75  35.197  24.013
1473.25  35.133  24.013
1473.75  35.133  24.013
1474.25  35.069  23.982
1474.75  35.133  23.982
1475.25  35.133  24.013
1475.75  35.133  23.982
1476.25  35.133  23.982
1476.75  35.133  24.013
1477.25  35.133  23.982
1477.75  35.133  23.982
1478.25  35.133  24.013
1478.75  35.133  24.013
1479.25  35.133  24.013
1479.75  35.069  23.951
1480.25  35.005  24.013
1480.75  35.133  24.013
1481.25  35.133  24.013
1481.75  35.133  23.982
1482.25  35.133  24.013
1482.75  35.133  24.013
1483.25  35.133  23.982
1483.75  35.133  24.013
1484.25  35.133  24.013
1484.75  35.069  24.013
1485.25  35.133  24.013
1485.75  35.133  23.982
1486.25  35.133  24.043
1486.75  35.133  24.013
1487.25  35.133  24.013
1487.75  35.133  23.982
1488.25  35.133  23.982
1488.75  35.133  24.013
1489.25  35.069  24.043
1489.75  35.197  23.982
1490.25  35.133  23.982
1490.75  35.133  24.013
1491.25  35.133  24.043
1491.75  35.197  23.982
1492.25  35.133  24.013
1492.75  35.133  23.982
1493.25  35.069  24.013
1493.75  35.133  23.982
1494.25  35.197  24.013
1494.75  35.197  23.982
1495.25  35.069  23.982
1495.75  35.133  24.013
1496.25  35.069  24.013
1496.75  35.133  23.982
1497.25  35.197  24.013
1497.75  35.133  24.013
1498.25  35.197  24.043
1498.75  35.133  24.013
1499.25  35.197  23.982
1499.75  35.133  24.013
1500.25  35.197  24.043
1500.75  35.133  24.074
1501.25  35.133  23.982
1501.75  35.197  23.982
1502.25  35.133  24.043
1502.75  35.133  24.013
1503.25  35.197  24.013
1503.75  35.133  24.013
1504.25  35.133  24.013
1504.75  35.069  23.982
1505.25  35.069  24.043
1505.75  35.069  24.013
1506.25  35.133  24.013
1506.75  35.197  23.982
1507.25  35.069  24.013
1507.75  35.261  24.013
1508.25  35.197  23.982
1508.75  35.133  24.013
1509.25  35.133  24.043
1509.76  35.197  24.013
1510.26  35.197  24.074
1510.76  35.197  23.982
1511.26  35.197  24.013
1511.76  35.261  24.013
1512.26  35.197  24.013
1512.76  35.133  23.982
1513.26  35.261  24.013
1513.76  35.133  24.013
1514.26  35.197  24.013
1514.76  35.197  24.013
1515.26  35.133  23.982
1515.76  35.133  24.043
1516.26  35.197  23.982
1516.76  35.197  24.043
1517.26  35.197  24.013
1517.76  35.133  24.013
1518.26  35.261  24.013
1518.76  35.197  24.013
1519.26  35.261  24.043
1519.76  35.197  24.013
1520.26  35.133  24.013
1520.76  35.133  23.982
1521.26  35.197  24.013
1521.76  35.133  23.982
1522.26  35.133  24.013
1522.76  35.197  24.043
1523.26  35.197  24.013
1523.76  35.197  24.043
1524.26  35.197  24.074
1524.76  35.197  24.043
1525.26  35.133  24.074
1525.76  35.197  24.043
1526.26  35.069  24.043
1526.76  35.069  24.043
1527.26  35.197  24.043
1527.76  35.133  24.013
1528.26  35.197  24.013
1528.76  35.197  24.013
1529.26  35.197  24.043
1529.76  35.133  23.982
1530.26  35.197  24.043
1530.76  35.197  24.013
1531.26  35.197  24.013
1531.76  35.133  23.951
1532.26  35.197  23.982
1532.76  35.197  23.982
1533.26  35.133  23.982
1533.76  35.133  24.013
1534.26  35.197  24.013
1534.76  35.133  24.013
1535.26  35.261  24.013
1535.76  35.197  24.013
1536.26  35.133  24.013
1536.76  35.133  24.013
1537.26  35.197  23.982
1537.76  35.261  23.982
1538.26  35.197  24.043
1538.76  35.197  24.013
1539.26  35.261  24.013
1539.76  35.133  24.043
1540.26  35.197  24.043
1540.76  35.197  24.013
1541.26  35.197  24.013
1541.76  35.197  24.013
1542.26  35.197  23.982
1542.76  35.197  24.043
1543.26  35.133  24.013
1543.76  35.197  24.013
1544.26  35.197  23.982
1544.76  35.261  24.043
1545.26  35.197  24.013
1545.76  35.197  23.951
1546.26  35.197  24.013
1546.76  35.197  24.043
1547.26  35.197  24.013
1547.76  35.133  24.013
1548.26  35.133  24.043
1548.76  35.133  24.043
1549.26  35.197  24.013
1549.76  35.133  24.013
1550.26  35.261  24.043
1550.76  35.261  24.013
1551.26  35.197  24.074
1551.76  35.133  24.013
1552.26  35.325  24.013
1552.76  35.133  24.043
1553.26  35.197  24.043
1553.76  35.197  23.982
1554.26  35.197  24.074
1554.76  35.197  23.982
1555.26  35.197  24.043
1555.76  35.261  24.013
1556.26  35.197  24.013
1556.76  35.197  24.043
1557.26  35.197  24.043
1557.76  35.261  24.013
1558.26  35.325  24.043
1558.76  35.197  24.013
1559.26  35.325  24.013
1559.76  35.261  24.043
1560.26  35.069  24.043
1560.76  35.197  24.013
1561.26  35.197  24.074
1561.76  35.261  24.043
1562.26  35.261  24.013
1562.76  35.197  24.013
1563.26  35.133  24.043
1563.76  35.261  24.013
1564.26  35.197  23.982
1564.76  35.197  24.013
1565.26  35.197  24.013
1565.76  35.197  24.043
1566.26  35.261  24.043
1566.76  35.133  24.013
1567.26  35.261  23.951
1567.76  35.197  24.013
1568.26  35.197  24.013
1568.76  35.197  24.013
1569.26  35.261  24.013
1569.76  35.197  24.013
1570.26  35.261  24.013
1570.76  35.197  24.013
1571.26  35.133  24.013
1571.76  35.133  23.982
1572.26  35.197  24.013
1572.76  35.197  24.013
1573.26  35.197  24.013
1573.76  35.261  24.013
1574.26  35.261  24.013
1574.76  35.197  24.043
1575.26  35.261  24.043
1575.76  35.261  24.013
1576.26  35.261  24.013
1576.76  35.197  24.013
1577.26  35.261  24.013
1577.76  35.261  24.043
1578.26  35.197  24.043
1578.76  35.261  24.043
1579.26  35.197  24.043
1579.76  35.197  24.043
1580.26  35.261  24.043
1580.76  35.197  24.013
1581.26  35.325  23.951
1581.76  35.197  24.043
1582.26  35.261  24.043
1582.76  35.261  24.013
1583.26  35.261  24.013
1583.76  35.261  24.043
1584.26  35.197  24.043
1584.76  35.261  24.013
1585.26  35.261  24.043
1585.76  35.261  24.013
1586.26  35.261  23.982
1586.76  35.261  24.013
1587.26  35.261  24.013
1587.76  35.261  24.043
1588.26  35.133  24.105
1588.76  35.197  24.043
1589.26  35.261  24.074
1589.76  35.261  24.043
1590.26  35.261  24.013
1590.76  35.133  24.043
1591.26  35.261  24.043
1591.76  35.261  24.043
1592.26  35.325  24.013
1592.76  35.261  24.043
1593.26  35.197  24.013
1593.76  35.261  24.043
1594.26  35.197  24.043
1594.76  35.197  24.013
1595.26  35.197  24.013
1595.76  35.261  24.013
1596.26  35.197  24.043
1596.76  35.197  24.013
1597.26  35.261  24.013
1597.76  35.197  24.013
1598.26  35.197  24.043
1598.76  35.261  24.013
1599.26  35.261  24.043
1599.76  35.261  24.043
1600.26  35.197  24.043
1600.76  35.197  24.043
1601.26  35.197  24.013
1601.76  35.261  24.013
1602.26  35.261  24.013
1602.76  35.261  24.013
1603.26  35.261  24.013
1603.76  35.261  24.013
1604.26  35.197  24.074
1604.76  35.197  24.013
1605.26  35.197  24.043
1605.76  35.197  24.043
1606.26  35.261  24.013
1606.76  35.197  24.013
1607.26  35.261  23.982
1607.76  35.197  24.043
1608.26  35.197  24.043
1608.76  35.261  24.043
1609.26  35.261  24.074
1609.76  35.197  24.043
1610.26  35.197  24.043
1610.76  35.261  24.013
1611.26  35.197  23.982
1611.76  35.325  24.013
1612.26  35.197  24.013
1612.76  35.197  24.043
1613.26  35.197  24.043
1613.76  35.197  24.013
1614.26  35.325  24.013
1614.76  35.261  24.013
1615.26  35.389  24.043
1615.76  35.261  24.043
1616.26  35.261  24.043
1616.76  35.261  24.043
1617.26  35.197  24.013
1617.76  35.261  24.043
1618.26  35.197  23.982
1618.76  35.197  24.013
1619.26  35.261  24.013
1619.76  35.197  24.043
1620.26  35.261  24.043
1620.76  35.261  24.043
1621.26  35.389  24.013
1621.76  35.261  24.043
1622.26  35.325  24.013
1622.77  35.197  24.013
1623.27  35.261  24.043
1623.77  35.261  24.013
1624.27  35.261  24.013
1624.77  35.261  24.013
1625.27  35.197  23.982
1625.77  35.261  24.013
1626.27  35.261  24.013
1626.77  35.261  24.043
1627.27  35.261  24.043
1627.77  35.197  24.013
1628.27  35.261  24.043
1628.77  35.261  24.074
1629.27  35.261  24.043
1629.77  35.389  24.043
1630.27  35.261  24.013
1630.77  35.261  24.043
1631.27  35.197  24.074
1631.77  35.197  24.043
1632.27  35.261  24.074
1632.77  35.261  24.043
1633.27  35.261  24.074
1633.77  35.261  24.043
1634.27  35.261  24.043
1634.77  35.261  24.013
1635.27  35.325  24.013
1635.77  35.197  23.982
1636.27  35.261  24.013
1636.77  35.261  24.043
1637.27  35.197  24.043
1637.77  35.261  24.043
1638.27  35.261  24.043
1638.77  35.261  24.013
1639.27  35.197  24.043
1639.77  35.261  24.074
1640.27  35.261  23.982
1640.77  35.261  24.043
1641.27  35.261  24.013
1641.77  35.325  24.043
1642.27  35.261  24.043
1642.77  35.261  24.043
1643.27  35.325  24.074
1643.77  35.261  24.043
1644.27  35.325  24.043
1644.77  35.325  24.013
1645.27  35.389  23.982
1645.77  35.261  24.043
1646.27  35.261  24.013
1646.77  35.261  24.013
1647.27  35.261  24.043
1647.77  35.261  24.043
1648.27  35.197  24.043
1648.77  35.325  24.043
1649.27  35.261  24.043
1649.77  35.261  24.043
1650.27  35.261  24.043
1650.77  35.261  24.074
1651.27  35.261  24.043
1651.77  35.197  24.043
1652.27  35.261  24.013
1652.77  35.261  24.043
1653.27  35.325  24.043
1653.77  35.197  24.043
1654.27  35.325  24.043
1654.77  35.261  24.013
1655.27  35.261  24.043
1655.77  35.261  24.013
1656.27  35.261  24.043
1656.77  35.325  24.105
1657.27  35.261  24.043
1657.77  35.261  23.982
1658.27  35.197  24.043
1658.77  35.261  24.043
1659.27  35.325  24.043
1659.77  35.261  24.043
1660.27  35.197  24.013
1660.77  35.197  24.013
1661.27  35.325  24.013
1661.77  35.325  24.043
1662.27  35.261  24.043
1662.77  35.325  24.043
1663.27  35.325  24.013
1663.77  35.261  24.043
1664.27  35.325  24.013
1664.77  35.261  24.013
1665.27  35.261  24.043
1665.77  35.197  24.043
1666.27  35.389  24.013
1666.77  35.261  24.043
1667.27  35.261  24.013
1667.77  35.261  24.013
1668.27  35.261  24.043
1668.77  35.261  24.043
1669.27  35.325  24.043
1669.77  35.133  24.043
1670.27  35.261  24.013
1670.77  35.325  24.074
1671.27  35.325  23.982
1671.77  35.261  23.982
1672.27  35.325  24.074
1672.77  35.261  24.043
1673.27  35.325  24.043
1673.77  35.389  24.013
1674.27  35.389  24.013
1674.77  35.325  24.013
1675.27  35.325  24.013
1675.77  35.261  24.043
1676.27  35.261  24.013
1676.77  35.261  24.043
1677.27  35.325  24.043
1677.77  35.325  24.074
1678.27  35.261  24.043
1678.77  35.261  24.043
1679.27  35.325  24.043
1679.77  35.325  24.043
1680.27  35.261  24.043
1680.77  35.261  24.043
1681.27  35.325  24.043
1681.77  35.325  24.043
1682.27  35.325  24.043
1682.77  35.325  24.074
1683.27  35.325  24.043
1683.77  35.389  24.043
1684.27  35.261  24.043
1684.77  35.517  24.043
1685.27  35.325  24.013
1685.77  35.261  24.013
1686.27  35.325  24.043
1686.77  35.453  24.043
1687.27  35.325  24.043
1687.77  35.261  24.043
1688.27  35.325  24.074
1688.77  35.261  24.013
1689.27  35.261  24.043
1689.77  35.261  24.013
1690.27  35.261  24.043
1690.77  35.325  24.013
1691.27  35.261  24.043
1691.77  35.261  24.043
1692.27  35.261  24.043
1692.77  35.261  24.043
1693.27  35.325  24.013
1693.77  35.197  24.043
1694.27  35.325  24.013
1694.77  35.261  24.043
1695.27  35.389  24.043
1695.77  35.261  24.043
1696.27  35.325  24.013
1696.77  35.325  24.043
1697.27  35.261  24.043
1697.77  35.261  24.043
1698.27  35.261  24.043
1698.77  35.325  24.043
1699.27  35.261  24.013
1699.77  35.325  24.043
1700.27  35.197  24.043
1700.77  35.389  24.043
1701.27  35.389  24.074
1701.77  35.453  24.013
1702.27  35.453  24.074
1702.77  35.325  23.982
1703.27  35.325  24.043
1703.77  35.325  24.043
1704.27  35.389  24.043
1704.77  35.325  24.074
1705.27  35.389  24.043
1705.77  35.325  24.013
1706.27  35.325  24.043
1706.77  35.325  24.105
1707.27  35.389  24.043
1707.77  35.261  24.013
1708.27  35.389  24.043
1708.77  35.325  24.043
1709.27  35.325  24.043
1709.77  35.325  24.043
1710.27  35.389  24.043
1710.77  35.261  24.043
1711.27  35.453  24.074
1711.77  35.261  24.043
1712.27  35.325  24.013
1712.77  35.325  24.043
1713.27  35.389  24.013
1713.77  35.389  24.074
1714.27  35.389  24.013
1714.77  35.389  24.013
1715.27  35.325  24.013
1715.77  35.453  24.013
1716.27  35.389  24.043
1716.77  35.325  24.013
1717.27  35.325  24.043
1717.77  35.389  24.043
1718.27  35.325  24.043
1718.77  35.325  24.074
1719.27  35.389  24.043
1719.77  35.325  24.043
1720.27  35.325  24.043
1720.77  35.325  24.043
1721.27  35.325  24.074
1721.77  35.325  24.074
1722.27  35.389  24.043
1722.77  35.453  24.074
1723.27  35.197  24.074
1723.77  35.261  24.043
1724.27  35.325  24.074
1724.77  35.325  24.043
1725.27  35.325  24.043
1725.77  35.389  24.043
1726.27  35.389  24.013
1726.77  35.389  24.043
1727.27  35.261  24.043
1727.77  35.325  24.043
1728.27  35.325  24.043
1728.77  35.389  24.043
1729.27  35.325  24.074
1729.77  35.325  24.043
1730.27  35.389  24.074
1730.77  35.261  24.043
1731.27  35.389  24.074
1731.77  35.389  24.013
1732.27  35.389  24.074
1732.77  35.325  24.043
1733.27  35.389  24.043
1733.77  35.325  24.043
1734.27  35.389  24.074
1734.77  35.389  24.043
1735.27  35.581  24.043
1735.77  35.325  24.074
1736.28  35.325  24.043
1736.78  35.325  24.074
1737.28  35.325  24.013
1737.78  35.325  24.043
1738.28  35.389  24.043
1738.78  35.261  24.043
1739.28  35.325  24.013
1739.78  35.389  24.043
1740.28  35.325  24.013
1740.78  35.261  24.074
1741.28  35.325  24.043
1741.78  35.325  24.043
1742.28  35.325  24.043
1742.78  35.389  24.074
1743.28  35.389  24.043
1743.78  35.325  24.043
1744.28  35.389  24.043
1744.78  35.389  24.013
1745.28  35.453  24.043
1745.78  35.389  24.043
1746.28  35.389  24.043
1746.78  35.325  24.043
1747.28  35.261  24.043
1747.78  35.325  24.043
1748.28  35.325  24.043
1748.78  35.389  24.013
1749.28  35.325  24.013
1749.78  35.325  24.013
1750.28  35.261  24.043
1750.78  35.325  24.074
1751.28  35.389  24.043
1751.78  35.389  24.013
1752.28  35.389  24.043
1752.78  35.325  24.043
1753.28  35.389  24.043
1753.78  35.389  24.043
1754.28  35.389  24.013
1754.78  35.389  24.043
1755.28  35.325  24.074
1755.78  35.389  24.043
1756.28  35.261  24.043
1756.78  35.389  24.074
1757.28  35.389  24.043
1757.78  35.389  24.043
1758.28  35.389  24.013
1758.78  35.325  24.043
1759.28  35.325  24.074
1759.78  35.325  24.043
1760.28  35.389  24.043
1760.78  35.325  24.074
1761.28  35.389  24.074
1761.78  35.517  24.043
1762.28  35.325  24.074
1762.78  35.389  24.074
1763.28  35.389  24.074
1763.78  35.389  24.074
1764.28  35.453  24.074
1764.78  35.389  24.074
1765.28  35.261  24.013
1765.78  35.325  24.043
1766.28  35.389  24.043
1766.78  35.453  24.074
1767.28  35.389  24.074
1767.78  35.261  24.013
1768.28  35.453  24.074
1768.78  35.325  24.043
1769.28  35.389  24.013
1769.78  35.389  24.043
1770.28  35.453  24.074
1770.78  35.389  24.074
1771.28  35.389  24.013
1771.78  35.389  24.074
1772.28  35.325  24.043
1772.78  35.389  24.043
1773.28  35.389  24.043
1773.78  35.325  24.043
1774.28  35.389  24.043
1774.78  35.389  24.074
1775.28  35.389  24.043
1775.78  35.389  24.074
1776.28  35.325  24.074
1776.78  35.453  24.074
1777.28  35.389  24.013
1777.78  35.389  24.013
1778.28  35.389  24.043
1778.78  35.389  24.074
1779.28  35.389  24.043
1779.78  35.389  24.074
1780.28  35.389  24.043
1780.78  35.325  24.043
1781.28  35.389  24.013
1781.78  35.389  24.074
1782.28  35.389  24.043
1782.78  35.325  24.043
1783.28  35.325  24.013
1783.78  35.389  24.074
1784.28  35.389  24.043
1784.78  35.389  24.074
1785.28  35.453  24.013
1785.78  35.325  24.074
1786.28  35.453  24.074
1786.78  35.389  24.074
1787.28  35.389  24.043
1787.78  35.389  24.136
1788.28  35.389  24.074
1788.78  35.453  24.013
1789.28  35.389  24.074
1789.78  35.389  24.043
1790.28  35.389  24.013
1790.78  35.389  24.074
1791.28  35.453  24.074
1791.78  35.517  24.043
1792.28  35.389  24.043
1792.78  35.453  24.105
1793.28  35.389  24.074
1793.78  35.453  24.013
1794.28  35.389  24.074
1794.78  35.389  24.105
1795.28  35.453  24.074
1795.78  35.389  24.074
1796.28  35.453  24.074
1796.78  35.389  24.043
1797.28  35.453  24.074
1797.78  35.389  24.074
1798.28  35.453  24.043
1798.78  35.389  24.043
1799.28  35.453  24.013
1799.78  35.389  24.074
1800.28  35.389  24.074
1800.78  35.453  24.074
1801.28  35.389  24.043
1801.78  35.453  24.074
1802.28  35.389  24.074
1802.78  35.389  24.074
1803.28  35.389  24.074
1803.78  35.517  24.105
1804.28  35.453  24.074
1804.78  35.389  24.074
1805.28  35.453  24.074
1805.78  35.453  24.105
1806.28  35.389  24.043
1806.78  35.389  24.013
1807.28  35.261  24.074
1807.78  35.325  24.074
1808.28  35.581  24.074
1808.78  35.389  24.074
1809.28  35.453  24.043
1809.78  35.325  24.074
1810.28  35.389  24.074
1810.78  35.325  24.043
1811.28  35.389  24.074
1811.78  35.325  24.074
1812.28  35.453  24.043
1812.78  35.389  24.074
1813.28  35.453  24.074
1813.78  35.453  24.074
1814.28  35.389  24.043
1814.78  35.453  24.043
1815.28  35.453  24.013
1815.78  35.453  24.043
1816.28  35.389  24.074
1816.78  35.389  24.043
1817.28  35.453  24.043
1817.78  35.389  24.043
1818.28  35.389  24.105
1818.78  35.389  24.074
1819.28  35.453  24.105
1819.78  35.389  24.043
1820.28  35.389  24.074
1820.78  35.453  24.074
1821.28  35.389  24.074
1821.78  35.453  24.043
1822.28  35.453  24.074
1822.78  35.453  24.074
1823.28  35.453  24.105
1823.78  35.325  24.043
1824.28  35.389  24.074
1824.78  35.453  24.043
1825.28  35.389  24.013
1825.78  35.389  24.074
1826.28  35.453  24.043
1826.78  35.389  24.074
1827.28  35.389  24.105
1827.78  35.389  24.043
1828.28  35.453  24.043
1828.78  35.325  24.043
1829.28  35.389  24.043
1829.78  35.453  24.074
1830.28  35.453  24.043
1830.78  35.389  24.074
1831.28  35.453  24.013
1831.78  35.325  24.074
1832.28  35.325  24.074
1832.78  35.389  24.013
1833.28  35.389  24.074
1833.78  35.453  24.074
1834.28  35.581  24.043
1834.78  35.453  24.043
1835.28  35.389  24.043
1835.78  35.517  24.074
1836.28  35.389  24.043
1836.78  35.453  24.074
1837.28  35.453  24.043
1837.78  35.389  24.105
1838.28  35.389  24.013
1838.78  35.325  24.105
1839.28  35.389  24.043
1839.78  35.389  24.043
1840.28  35.325  24.074
1840.78  35.453  24.043
1841.28  35.389  24.013
1841.78  35.453  24.074
1842.28  35.389  24.074
1842.78  35.389  24.105
1843.28  35.517  24.074
1843.78  35.389  24.074
1844.28  35.453  24.043
1844.78  35.517  24.074
1845.28  35.453  24.074
1845.78  35.517  24.043
1846.28  35.389  24.043
1846.78  35.389  24.105
1847.28  35.453  24.043
1847.78  35.517  24.043
1848.28  35.453  24.043
1848.78  35.453  24.043
1849.29  35.389  24.074
1849.79  35.389  24.074
1850.29  35.453  24.074
1850.79  35.517  24.105
1851.29  35.453  24.074
1851.79  35.453  24.074
1852.29  35.453  24.043
1852.79  35.389  24.043
1853.29  35.453  24.043
1853.79  35.453  24.043
1854.29  35.453  24.105
1854.79  35.389  24.074
1855.29  35.389  24.043
1855.79  35.517  24.074
1856.29  35.453  24.074
1856.79  35.453  24.043
1857.29  35.389  24.074
1857.79  35.389  24.074
1858.29  35.517  24.074
1858.79  35.453  24.074
1859.29  35.453  24.074
1859.79  35.453  24.074
1860.29  35.453  24.043
1860.79  35.453  24.074
1861.29  35.389  24.074
1861.79  35.517  24.043
1862.29  35.453  24.074
1862.79  35.453  24.074
1863.29  35.453  24.074
1863.79  35.453  24.043
1864.29  35.453  24.105
1864.79  35.453  24.074
1865.29  35.453  24.074
1865.79  35.453  24.074
1866.29  35.389  24.105
1866.79  35.389  24.074
1867.29  35.389  24.043
1867.79  35.453  24.043
1868.29  35.453  24.105
1868.79  35.453  24.074
1869.29  35.453  24.074
1869.79  35.453  24.105
1870.29  35.453  24.074
1870.79  35.453  24.105
1871.29  35.517  24.074
1871.79  35.453  24.074
1872.29  35.453  24.074
1872.79  35.453  24.136
1873.29  35.389  24.013
1873.79  35.453  24.074
1874.29  35.453  24.105
1874.79  35.517  24.074
1875.29  35.517  24.074
1875.79  35.453  24.074
1876.29  35.517  24.074
1876.79  35.453  24.074
1877.29  35.453  24.074
1877.79  35.389  24.074
1878.29  35.517  24.074
1878.79  35.453  24.074
1879.29  35.517  24.074
1879.79  35.453  24.043
1880.29  35.517  24.074
1880.79  35.453  24.105
1881.29  35.453  24.013
1881.79  35.453  24.074
1882.29  35.453  24.074
1882.79  35.453  24.074
1883.29  35.453  24.074
1883.79  35.453  24.074
1884.29  35.453  24.043
1884.79  35.453  24.013
1885.29  35.517  24.074
1885.79  35.453  24.043
1886.29  35.453  24.074
1886.79  35.581  24.074
1887.29  35.453  24.074
1887.79  35.453  24.074
1888.29  35.517  24.074
1888.79  35.453  24.074
1889.29  35.453  24.074
1889.79  35.453  24.043
1890.29  35.517  24.043
1890.79  35.517  24.074
1891.29  35.453  24.074
1891.79  35.453  24.074
1892.29  35.645  24.074
1892.79  35.453  24.043
1893.29  35.453  24.074
1893.79  35.389  24.074
1894.29  35.453  24.074
1894.79  35.453  24.043
1895.29  35.389  24.074
1895.79  35.453  24.105
1896.29  35.517  24.074
1896.79  35.517  24.074
1897.29  35.453  24.105
1897.79  35.389  24.074
1898.29  35.453  24.074
1898.79  35.453  24.074
1899.29  35.453  24.074
1899.79  35.389  24.074
1900.29  35.453  24.074
1900.79  35.517  24.074
1901.29  35.453  24.074
1901.79  35.517  24.074
1902.29  35.389  24.043
1902.79  35.517  24.105
1903.29  35.453  24.074
1903.79  35.453  24.074
1904.29  35.453  24.074
1904.79  35.453  24.074
1905.29  35.453  24.043
1905.79  35.453  24.074
1906.29  35.453  24.043
1906.79  35.453  24.074
1907.29  35.453  24.074
1907.79  35.517  24.074
1908.29  35.453  24.074
1908.79  35.581  24.074
1909.29  35.453  24.074
1909.79  35.517  24.105
1910.29  35.581  24.074
1910.79  35.389  24.105
1911.29  35.453  24.074
1911.79  35.453  24.074
1912.29  35.453  24.074
1912.79  35.517  24.074
1913.29  35.517  24.074
1913.79  35.453  24.105
1914.29  35.453  24.074
1914.79  35.453  24.074
1915.29  35.453  24.074
1915.79  35.389  24.043
1916.29  35.581  24.074
1916.79  35.453  24.074
1917.29  35.517  24.074
1917.79  35.453  24.105
1918.29  35.453  24.074
1918.79  35.517  24.105
1919.29  35.517  24.043
1919.79  35.453  24.074
1920.29  35.517  24.074
1920.79  35.517  24.074
1921.29  35.453  24.043
1921.79  35.453  24.105
1922.29  35.517  24.074
1922.79  35.517  24.105
1923.29  35.581  24.074
1923.79  35.453  24.074
1924.29  35.517  24.105
1924.79  35.517  24.074
1925.29  35.517  24.074
1925.79  35.517  24.043
1926.29  35.581  24.074
1926.79  35.517  24.074
1927.29  35.517  24.074
1927.79  35.517  24.105
1928.29  35.517  24.105
1928.79  35.453  24.074
1929.29  35.517  24.074
1929.79  35.517  24.074
1930.29  35.453  24.105
1930.79  35.453  24.074
1931.29  35.517  24.043
1931.79  35.517  24.074
1932.29  35.517  24.074
1932.79  35.517  24.074
1933.29  35.517  24.105
1933.79  35.453  24.074
1934.29  35.517  24.074
1934.79  35.517  24.074
1935.29  35.517  24.074
1935.79  35.517  24.105
1936.29  35.453  24.074
1936.79  35.453  24.074
1937.29  35.517  24.074
1937.79  35.389  24.105
1938.29  35.517  24.074
1938.79  35.581  24.074
1939.29  35.517  24.074
1939.79  35.517  24.074
1940.29  35.517  24.074
1940.79  35.517  24.074
1941.29  35.517  24.074
1941.79  35.453  24.074
1942.29  35.389  24.043
1942.79  35.581  24.074
1943.29  35.581  24.105
1943.79  35.517  24.074
1944.29  35.517  24.074
1944.79  35.453  24.105
1945.29  35.453  24.074
1945.79  35.517  24.074
1946.29  35.517  24.074
1946.79  35.453  24.043
1947.29  35.517  24.074
1947.79  35.581  24.105
1948.29  35.453  24.074
1948.79  35.453  24.043
1949.29  35.517  24.105
1949.79  35.517  24.074
1950.29  35.517  24.074
1950.79  35.517  24.074
1951.29  35.581  24.105
1951.79  35.517  24.074
1952.29  35.453  24.043
1952.79  35.517  24.074
1953.29  35.453  24.074
1953.79  35.517  24.074
1954.29  35.517  24.105
1954.79  35.517  24.043
1955.29  35.453  24.074
1955.79  35.453  24.043
1956.29  35.517  24.105
1956.79  35.517  24.074
1957.29  35.517  24.105
1957.79  35.581  24.043
1958.29  35.453  24.074
1958.79  35.517  24.105
1959.29  35.517  24.105
1959.79  35.453  24.043
1960.29  35.709  24.105
1960.79  35.517  24.074
1961.29  35.645  24.074
1961.79  35.517  24.074
1962.30  35.581  24.074
1962.80  35.517  24.074
1963.30  35.517  24.105
1963.80  35.517  24.074
1964.30  35.453  24.105
1964.80  35.453  24.074
1965.30  35.453  24.105
1965.80  35.453  24.105
1966.30  35.453  24.074
1966.80  35.517  24.074
1967.30  35.581  24.043
1967.80  35.517  24.074
1968.30  35.581  24.074
1968.80  35.581  24.074
1969.30  35.517  24.105
1969.80  35.453  24.074
1970.30  35.581  24.105
1970.80  35.517  24.074
1971.30  35.517  24.136
1971.80  35.517  24.105
1972.30  35.645  24.074
1972.80  35.453  24.074
1973.30  35.517  24.105
1973.80  35.453  24.074
1974.30  35.453  24.074
1974.80  35.453  24.074
1975.30  35.581  24.074
1975.80  35.517  24.105
1976.30  35.517  24.074
1976.80  35.389  24.043
1977.30  35.581  24.105
1977.80  35.517  24.074
1978.30  35.581  24.074
1978.80  35.453  24.074
1979.30  35.517  24.074
1979.80  35.517  24.074
1980.30  35.517  24.105
1980.80  35.517  24.105
1981.30  35.581  24.074
1981.80  35.517  24.074
1982.30  35.517  24.105
1982.80  35.517  24.074
1983.30  35.517  24.105
1983.80  35.581  24.105
1984.30  35.581  24.105
1984.80  35.517  24.074
1985.30  35.517  24.105
1985.80  35.581  24.105
1986.30  35.581  24.105
1986.80  35.517  24.074
1987.30  35.581  24.105
1987.80  35.581  24.136
1988.30  35.517  24.105
1988.80  35.517  24.136
1989.30  35.517  24.105
1989.80  35.517  24.105
1990.30  35.581  24.074
1990.80  35.581  24.105
1991.30  35.517  24.074
1991.80  35.517  24.105
1992.30  35.517  24.074
1992.80  35.581  24.105
1993.30  35.517  24.074
1993.80  35.517  24.105
1994.30  35.453  24.105
1994.80  35.581  24.105
1995.30  35.389  24.074
1995.80  35.453  24.074
1996.30  35.517  24.105
1996.80  35.645  24.074
1997.30  35.517  24.043
1997.80  35.517  24.105
1998.30  35.517  24.105
1998.80  35.581  24.105
1999.30  35.581  24.043
1999.80  35.517  24.074
2000.30  35.517  24.074
2000.80  35.517  24.074
2001.30  35.581  24.074
2001.80  35.645  24.105
2002.30  35.581  24.074
2002.80  35.517  24.074
2003.30  35.581  24.074
2003.80  35.453  24.074
2004.30  35.453  24.074
2004.80  35.517  24.074
2005.30  35.581  24.136
2005.80  35.453  24.043
2006.30  35.581  24.074
2006.80  35.645  24.074
2007.30  35.517  24.074
2007.80  35.581  24.105
2008.30  35.453  24.074
2008.80  35.517  24.043
2009.30  35.453  24.105
2009.80  35.517  24.074
2010.30  35.581  24.074
2010.80  35.517  24.105
2011.30  35.581  24.074
2011.80  35.517  24.105
2012.30  35.517  24.136
2012.80  35.581  24.074
2013.30  35.581  24.105
2013.80  35.581  24.074
2014.30  35.453  24.105
2014.80  35.517  24.074
2015.30  35.517  24.074
2015.80  35.581  24.074
2016.30  35.581  24.105
2016.80  35.517  24.013
2017.30  35.517  24.105
2017.80  35.453  24.105
2018.30  35.581  24.074
2018.80  35.517  24.105
2019.30  35.453  24.105
2019.80  35.517  24.074
2020.30  35.517  24.136
2020.80  35.517  24.136
2021.30  35.517  24.074
2021.80  35.517  24.074
2022.30  35.581  24.074
2022.80  35.517  24.074
2023.30  35.581  24.136
2023.80  35.517  24.074
2024.30  35.517  24.105
2024.80  35.645  24.105
2025.30  35.517  24.105
2025.80  35.517  24.105
2026.30  35.517  24.074
2026.80  35.581  24.074
2027.30  35.581  24.136
2027.80  35.581  24.074
2028.30  35.517  24.105
2028.80  35.517  24.105
2029.30  35.517  24.105
2029.80  35.517  24.074
2030.30  35.581  24.074
2030.80  35.517  24.074
2031.30  35.517  24.105
2031.80  35.581  24.074
2032.30  35.581  24.074
2032.80  35.517  24.105
2033.30  35.581  24.074
2033.80  35.581  24.105
2034.30  35.581  24.105
2034.80  35.581  24.105
2035.30  35.581  24.105
2035.80  35.581  24.074
2036.30  35.517  24.136
2036.80  35.581  24.105
2037.30  35.581  24.136
2037.80  35.581  24.105
2038.30  35.581  24.105
2038.80  35.581  24.136
2039.30  35.581  24.105
2039.80  35.581  24.074
2040.30  35.517  24.105
2040.80  35.517  24.074
2041.30  35.581  24.043
2041.80  35.517  24.105
2042.30  35.645  24.105
2042.80  35.581  24.074
2043.30  35.581  24.105
2043.80  35.581  24.105
2044.30  35.645  24.136
2044.80  35.453  24.105
2045.30  35.645  24.136
2045.80  35.581  24.105
2046.30  35.581  24.105
2046.80  35.517  24.105
2047.30  35.517  24.105
2047.80  35.517  24.136
2048.30  35.581  24.074
2048.80  35.645  24.074
2049.30  35.581  24.105
2049.80  35.581  24.074
2050.30  35.581  24.105
2050.80  35.517  24.105
2051.30  35.517  24.105
2051.80  35.517  24.105
2052.30  35.581  24.105
2052.80  35.581  24.105
2053.30  35.581  24.105
2053.80  35.517  24.074
2054.30  35.517  24.136
2054.80  35.581  24.105
2055.30  35.645  24.074
2055.80  35.645  24.105
2056.30  35.581  24.043
2056.80  35.581  24.105
2057.30  35.517  24.105
2057.80  35.517  24.074
2058.30  35.645  24.105
2058.80  35.517  24.136
2059.30  35.581  24.074
2059.80  35.517  24.074
2060.30  35.581  24.105
2060.80  35.581  24.105
2061.30  35.645  24.074
2061.80  35.581  24.074
2062.30  35.517  24.136
2062.80  35.581  24.105
2063.30  35.581  24.105
2063.80  35.581  24.105
2064.30  35.517  24.105
2064.80  35.581  24.074
2065.30  35.581  24.105
2065.80  35.645  24.105
2066.30  35.517  24.105
2066.80  35.581  24.136
2067.30  35.517  24.105
2067.80  35.581  24.105
2068.30  35.581  24.074
2068.80  35.517  24.136
2069.30  35.581  24.105
2069.80  35.581  24.074
2070.30  35.581  24.105
2070.80  35.517  24.074
2071.30  35.581  24.105
2071.80  35.581  24.043
2072.30  35.645  24.136
2072.80  35.645  24.105
2073.30  35.581  24.105
2073.80  35.645  24.105
2074.30  35.517  24.105
2074.80  35.389  24.105
2075.30  35.645  24.105
2075.80  35.581  24.105
2076.30  35.581  24.074
2076.80  35.581  24.105
2077.30  35.581  24.074
2077.80  35.581  24.074
2078.30  35.517  24.136
2078.80  35.581  24.105
2079.30  35.709  24.136
2079.80  35.581  24.074
2080.30  35.773  24.105
2080.80  35.581  24.105
2081.30  35.581  24.136
2081.80  35.581  24.105
2082.30  35.581  24.105
2082.80  35.645  24.136
2083.30  35.581  24.105
2083.80  35.581  24.105
2084.30  35.581  24.105
2084.80  35.645  24.136
2085.30  35.645  24.105
2085.80  35.581  24.074
2086.31  35.645  24.074
2086.81  35.517  24.105
2087.31  35.517  24.074
2087.81  35.517  24.167
2088.31  35.581  24.105
2088.81  35.517  24.074
2089.31  35.773  24.105
2089.81  35.645  24.105
2090.31  35.581  24.074
2090.81  35.581  24.136
2091.31  35.645  24.074
2091.81  35.645  24.074
2092.31  35.581  24.105
2092.81  35.581  24.105
2093.31  35.581  24.105
2093.81  35.645  24.136
2094.31  35.645  24.105
2094.81  35.581  24.105
2095.31  35.517  24.074
2095.81  35.581  24.105
2096.31  35.645  24.105
2096.81  35.645  24.105
2097.31  35.581  24.105
2097.81  35.517  24.105
2098.31  35.581  24.136
2098.81  35.709  24.105
2099.31  35.517  24.105
2099.81  35.581  24.074
2100.31  35.581  24.167
2100.81  35.581  24.105
2101.31  35.581  24.105
2101.81  35.645  24.074
2102.31  35.645  24.105
2102.81  35.581  24.136
2103.31  35.581  24.136
2103.81  35.581  24.105
2104.31  35.709  24.074
2104.81  35.645  24.105
2105.31  35.581  24.105
2105.81  35.517  24.105
2106.31  35.645  24.105
2106.81  35.581  24.105
2107.31  35.645  24.105
2107.81  35.709  24.105
2108.31  35.581  24.105
2108.81  35.645  24.105
2109.31  35.581  24.105
2109.81  35.581  24.074
2110.31  35.645  24.136
2110.81  35.645  24.105
2111.31  35.581  24.074
2111.81  35.581  24.136
2112.31  35.581  24.105
2112.81  35.581  24.105
2113.31  35.645  24.074
2113.81  35.581  24.105
2114.31  35.645  24.105
2114.81  35.581  24.105
2115.31  35.645  24.105
2115.81  35.581  24.074
2116.31  35.645  24.105
2116.81  35.581  24.105
2117.31  35.645  24.136
2117.81  35.645  24.105
2118.31  35.581  24.105
2118.81  35.517  24.105
2119.31  35.709  24.136
2119.81  35.709  24.105
2120.31  35.645  24.074
2120.81  35.709  24.136
2121.31  35.645  24.105
2121.81  35.645  24.105
2122.31  35.709  24.105
2122.81  35.645  24.105
2123.31  35.645  24.105
2123.81  35.581  24.105
2124.31  35.645  24.136
2124.81  35.581  24.074
2125.31  35.645  24.105
2125.81  35.645  24.105
2126.31  35.581  24.105
2126.81  35.645  24.105
2127.31  35.645  24.105
2127.81  35.581  24.105
2128.31  35.645  24.074
2128.81  35.517  24.105
2129.31  35.581  24.074
2129.81  35.709  24.136
2130.31  35.581  24.136
2130.81  35.581  24.105
2131.31  35.645  24.136
2131.81  35.581  24.074
2132.31  35.581  24.105
2132.81  35.645  24.105
2133.31  35.517  24.105
2133.81  35.581  24.105
2134.31  35.645  24.105
2134.81  35.581  24.105
2135.31  35.581  24.136
2135.81  35.645  24.105
2136.31  35.645  24.105
2136.81  35.517  24.136
2137.31  35.645  24.105
2137.81  35.645  24.136
2138.31  35.581  24.074
2138.81  35.645  24.105
2139.31  35.581  24.105
2139.81  35.581  24.105
2140.31  35.645  24.105
2140.81  35.581  24.105
2141.31  35.645  24.136
2141.81  35.645  24.105
2142.31  35.581  24.105
2142.81  35.581  24.136
2143.31  35.645  24.105
2143.81  35.581  24.105
2144.31  35.581  24.105
2144.81  35.581  24.136
2145.31  35.581  24.105
2145.81  35.581  24.136
2146.31  35.709  24.105
2146.81  35.645  24.105
2147.31  35.773  24.074
2147.81  35.517  24.136
2148.31  35.645  24.074
2148.81  35.645  24.105
2149.31  35.645  24.074
2149.81  35.709  24.074
2150.31  35.645  24.074
2150.81  35.645  24.136
2151.31  35.709  24.105
2151.81  35.645  24.105
2152.31  35.581  24.105
2152.81  35.581  24.136
2153.31  35.645  24.136
2153.81  35.645  24.136
2154.31  35.645  24.136
2154.81  35.709  24.136
2155.31  35.709  24.136
2155.81  35.645  24.105
2156.31  35.645  24.136
2156.81  35.645  24.105
2157.31  35.773  24.136
2157.81  35.645  24.105
2158.31  35.645  24.136
2158.81  35.645  24.074
2159.31  35.709  24.105
2159.81  35.709  24.167
2160.31  35.645  24.105
2160.81  35.645  24.105
2161.31  35.709  24.074
2161.81  35.581  24.074
2162.31  35.645  24.105
2162.81  35.709  24.074
2163.31  35.645  24.197
2163.81  35.581  24.105
2164.31  35.645  24.105
2164.81  35.645  24.167
2165.31  35.645  24.136
2165.81  35.581  24.136
2166.31  35.581  24.105
2166.81  35.645  24.105
2167.31  35.645  24.136
2167.81  35.581  24.167
2168.31  35.709  24.167
2168.81  35.645  24.105
2169.31  35.709  24.074
2169.81  35.581  24.167
2170.31  35.581  24.105
2170.81  35.645  24.105
2171.31  35.645  24.105
2171.81  35.645  24.074
2172.31  35.645  24.105
2172.81  35.645  24.105
2173.31  35.709  24.136
2173.81  35.645  24.105
2174.31  35.645  24.136
2174.81  35.645  24.105
2175.31  35.709  24.136
2175.81  35.709  24.167
2176.31  35.709  24.136
2176.81  35.645  24.136
2177.31  35.709  24.136
2177.81  35.645  24.136
2178.31  35.773  24.105
2178.81  35.709  24.105
2179.31  35.709  24.105
2179.81  35.709  24.167
2180.31  35.645  24.136
2180.81  35.645  24.136
2181.31  35.581  24.136
2181.81  35.709  24.105
2182.31  35.517  24.136
2182.81  35.645  24.105
2183.31  35.645  24.105
2183.81  35.645  24.105
2184.31  35.645  24.105
2184.81  35.709  24.136
2185.31  35.645  24.136
2185.81  35.645  24.136
2186.31  35.645  24.136
2186.81  35.645  24.136
2187.31  35.645  24.105
2187.81  35.645  24.136
2188.31  35.645  24.105
2188.82  35.709  24.167
2189.32  35.709  24.136
2189.82  35.709  24.167
2190.32  35.709  24.105
2190.82  35.581  24.167
2191.32  35.645  24.136
2191.82  35.581  24.105
2192.32  35.581  24.074
2192.82  35.645  24.105
2193.32  35.645  24.136
2193.82  35.581  24.136
2194.32  35.645  24.074
2194.82  35.581  24.136
2195.32  35.709  24.136
2195.82  35.645  24.105
2196.32  35.709  24.105
2196.82  35.645  24.136
2197.32  35.709  24.105
2197.82  35.709  24.136
2198.32  35.645  24.105
2198.82  35.645  24.136
2199.32  35.645  24.105
2199.82  35.709  24.136
2200.32  35.645  24.167
2200.82  35.645  24.105
2201.32  35.645  24.136
2201.82  35.645  24.136
2202.32  35.773  24.167
2202.82  35.645  24.136
2203.32  35.645  24.105
2203.82  35.645  24.105
2204.32  35.709  24.105
2204.82  35.645  24.105
2205.32  35.645  24.167
2205.82  35.709  24.136
2206.32  35.645  24.105
2206.82  35.709  24.136
2207.32  35.581  24.136
2207.82  35.709  24.136
2208.32  35.645  24.105
2208.82  35.709  24.136
2209.32  35.645  24.105
2209.82  35.645  24.167
2210.32  35.645  24.105
2210.82  35.709  24.136
2211.32  35.709  24.136
2211.82  35.645  24.167
2212.32  35.581  24.136
2212.82  35.645  24.105
2213.32  35.645  24.105
2213.82  35.645  24.074
2214.32  35.709  24.167
2214.82  35.645  24.105
2215.32  35.645  24.136
2215.82  35.773  24.105
2216.32  35.709  24.105
2216.82  35.645  24.105
2217.32  35.645  24.136
2217.82  35.645  24.136
2218.32  35.581  24.136
2218.82  35.645  24.136
2219.32  35.645  24.167
2219.82  35.773  24.105
2220.32  35.645  24.167
2220.82  35.709  24.167
2221.32  35.773  24.136
2221.82  35.709  24.105
2222.32  35.645  24.136
2222.82  35.709  24.136
2223.32  35.709  24.136
2223.82  35.709  24.167
2224.32  35.645  24.105
2224.82  35.709  24.105
2225.32  35.581  24.136
2225.82  35.645  24.136
2226.32  35.645  24.105
2226.82  35.645  24.136
2227.32  35.645  24.136
2227.82  35.645  24.105
2228.32  35.645  24.136
2228.82  35.581  24.136
2229.32  35.645  24.136
2229.82  35.773  24.136
2230.32  35.709  24.105
2230.82  35.709  24.105
2231.32  35.837  24.105
2231.82  35.645  24.136
2232.32  35.645  24.105
2232.82  35.645  24.105
2233.32  35.773  24.105
2233.82  35.645  24.105
2234.32  35.645  24.136
2234.82  35.709  24.136
2235.32  35.773  24.105
2235.82  35.709  24.136
2236.32  35.645  24.136
2236.82  35.709  24.105
2237.32  35.645  24.136
2237.82  35.709  24.136
2238.32  35.645  24.136
2238.82  35.709  24.136
2239.32  35.645  24.105
2239.82  35.645  24.105
2240.32  35.645  24.136
2240.82  35.709  24.105
2241.32  35.581  24.105
2241.82  35.709  24.105
2242.32  35.645  24.105
2242.82  35.709  24.105
2243.32  35.645  24.136
2243.82  35.645  24.136
2244.32  35.581  24.105
2244.82  35.773  24.105
2245.32  35.709  24.105
2245.82  35.645  24.105
2246.32  35.709  24.136
2246.82  35.709  24.105
2247.32  35.645  24.136
2247.82  35.709  24.105
2248.32  35.773  24.105
2248.82  35.773  24.136
2249.32  35.645  24.167
2249.82  35.581  24.136
2250.32  35.645  24.136
2250.82  35.645  24.105
2251.32  35.709  24.136
2251.82  35.709  24.105
2252.32  35.709  24.136
2252.82  35.645  24.136
2253.32  35.709  24.167
2253.82  35.773  24.136
2254.32  35.709  24.136
2254.82  35.645  24.074
2255.32  35.645  24.136
2255.82  35.709  24.136
2256.32  35.709  24.167
2256.82  35.773  24.136
2257.32  35.645  24.136
2257.82  35.709  24.136
2258.32  35.581  24.105
2258.82  35.773  24.105
2259.32  35.709  24.167
2259.82  35.709  24.167
2260.32  35.709  24.105
2260.82  35.709  24.136
2261.32  35.773  24.136
2261.82  35.709  24.136
2262.32  35.773  24.136
2262.82  35.709  24.136
2263.32  35.709  24.136
2263.82  35.581  24.167
2264.32  35.709  24.136
2264.82  35.645  24.136
2265.32  35.709  24.167
2265.82  35.581  24.136
2266.32  35.645  24.136
2266.82  35.709  24.136
2267.32  35.773  24.136
2267.82  35.709  24.105
2268.32  35.645  24.136
2268.82  35.645  24.105
2269.32  35.773  24.136
2269.82  35.773  24.167
2270.32  35.645  24.167
2270.82  35.773  24.136
2271.32  35.709  24.136
2271.82  35.645  24.105
2272.32  35.773  24.105
2272.82  35.645  24.136
2273.32  35.581  24.136
2273.82  35.709  24.136
2274.32  35.709  24.105
2274.82  35.709  24.136
2275.32  35.709  24.105
2275.82  35.709  24.167
2276.32  35.645  24.167
2276.82  35.709  24.105
2277.32  35.709  24.074
2277.82  35.645  24.136
2278.32  35.773  24.136
2278.82  35.709  24.136
2279.32  35.709  24.136
2279.82  35.645  24.136
2280.32  35.709  24.136
2280.82  35.645  24.136
2281.32  35.709  24.136
2281.82  35.581  24.136
2282.32  35.709  24.105
2282.82  35.709  24.167
2283.32  35.645  24.167
2283.82  35.645  24.136
2284.32  35.773  24.136
2284.82  35.709  24.105
2285.32  35.773  24.136
2285.82  35.709  24.136
2286.32  35.773  24.136
2286.82  35.709  24.105
2287.32  35.709  24.105
2287.82  35.517  24.136
2288.32  35.709  24.136
2288.82  35.773  24.105
2289.32  35.773  24.105
2289.82  35.773  24.136
2290.32  35.709  24.136
2290.82  35.645  24.136
2291.32  35.709  24.105
2291.82  35.709  24.136
2292.32  35.709  24.136
2292.82  35.837  24.167
2293.32  35.773  24.136
2293.82  35.773  24.136
2294.32  35.709  24.136
2294.82  35.773  24.136
2295.32  35.709  24.105
2295.82  35.773  24.136
2296.32  35.773  24.136
2296.82  35.709  24.136
2297.32  35.773  24.136
2297.82  35.709  24.167
2298.32  35.645  24.136
2298.82  35.709  24.136
2299.32  35.709  24.136
2299.82  35.709  24.136
2300.32  35.773  24.136
2300.82  35.709  24.136
2301.32  35.645  24.136
2301.82  35.773  24.105
2302.32  35.709  24.167
2302.82  35.645  24.105
2303.32  35.645  24.136
2303.82  35.645  24.136
2304.32  35.645  24.136
2304.82  35.709  24.136
2305.32  35.773  24.074
2305.82  35.709  24.136
2306.32  35.581  24.136
2306.82  35.773  24.167
2307.32  35.773  24.167
2307.82  35.709  24.136
2308.32  35.773  24.136
2308.82  35.645  24.167
2309.32  35.709  24.136
2309.82  35.709  24.136
2310.32  35.773  24.136
2310.82  35.773  24.105
2311.32  35.709  24.136
2311.82  35.709  24.136
2312.32  35.709  24.136
2312.83  35.773  24.136
2313.33  35.709  24.136
2313.83  35.709  24.105
2314.33  35.709  24.105
2314.83  35.645  24.167
2315.33  35.837  24.136
2315.83  35.773  24.074
2316.33  35.709  24.167
2316.83  35.709  24.167
2317.33  35.709  24.136
2317.83  35.773  24.197
2318.33  35.773  24.136
2318.83  35.709  24.167
2319.33  35.709  24.167
2319.83  35.773  24.136
2320.33  35.709  24.136
2320.83  35.709  24.136
2321.33  35.773  24.136
2321.83  35.773  24.105
2322.33  35.709  24.136
2322.83  35.645  24.136
2323.33  35.709  24.136
2323.83  35.709  24.105
2324.33  35.773  24.167
2324.83  35.645  24.136
2325.33  35.773  24.167
2325.83  35.709  24.136
2326.33  35.773  24.167
2326.83  35.773  24.136
2327.33  35.709  24.136
2327.83  35.709  24.136
2328.33  35.709  24.136
2328.83  35.709  24.136
2329.33  35.709  24.136
2329.83  35.773  24.167
2330.33  35.709  24.167
2330.83  35.709  24.136
2331.33  35.773  24.136
2331.83  35.709  24.136
2332.33  35.709  24.167
2332.83  35.773  24.136
2333.33  35.709  24.105
2333.83  35.773  24.167
2334.33  35.709  24.167
2334.83  35.709  24.136
2335.33  35.837  24.136
2335.83  35.773  24.167
2336.33  35.773  24.167
2336.83  35.773  24.136
2337.33  35.837  24.136
2337.83  35.773  24.136
2338.33  35.773  24.136
2338.83  35.773  24.136
2339.33  35.773  24.136
2339.83  35.709  24.136
2340.33  35.837  24.136
2340.83  35.645  24.167
2341.33  35.709  24.136
2341.83  35.837  24.167
2342.33  35.837  24.136
2342.83  35.709  24.136
2343.33  35.773  24.136
2343.83  35.709  24.136
2344.33  35.773  24.136
2344.83  35.709  24.136
2345.33  35.773  24.136
2345.83  35.837  24.105
2346.33  35.709  24.136
2346.83  35.709  24.136
2347.33  35.709  24.136
2347.83  35.773  24.136
2348.33  35.773  24.136
2348.83  35.773  24.167
2349.33  35.773  24.136
2349.83  35.709  24.136
2350.33  35.709  24.136
2350.83  35.773  24.136
2351.33  35.709  24.167
2351.83  35.773  24.136
2352.33  35.645  24.136
2352.83  35.837  24.136
2353.33  35.709  24.167
2353.83  35.773  24.136
2354.33  35.837  24.136
2354.83  35.645  24.136
2355.33  35.837  24.105
2355.83  35.709  24.136
2356.33  35.773  24.167
2356.83  35.773  24.136
2357.33  35.709  24.167
2357.83  35.773  24.167
2358.33  35.773  24.136
2358.83  35.709  24.167
2359.33  35.773  24.136
2359.83  35.645  24.167
2360.33  35.773  24.136
2360.83  35.773  24.136
2361.33  35.709  24.136
2361.83  35.773  24.167
2362.33  35.709  24.167
2362.83  35.837  24.167
2363.33  35.709  24.167
2363.83  35.773  24.167
2364.33  35.837  24.167
2364.83  35.709  24.136
2365.33  35.709  24.136
2365.83  35.773  24.136
2366.33  35.837  24.105
2366.83  35.773  24.136
2367.33  35.709  24.105
2367.83  35.709  24.136
2368.33  35.709  24.136
2368.83  35.773  24.136
2369.33  35.773  24.136
2369.83  35.709  24.136
2370.33  35.773  24.136
2370.83  35.709  24.105
2371.33  35.645  24.197
2371.83  35.773  24.136
2372.33  35.773  24.167
2372.83  35.773  24.136
2373.33  35.773  24.105
2373.83  35.709  24.167
2374.33  35.709  24.136
2374.83  35.773  24.136
2375.33  35.773  24.105
2375.83  35.773  24.105
2376.33  35.773  24.167
2376.83  35.773  24.136
2377.33  35.709  24.136
2377.83  35.773  24.167
2378.33  35.709  24.167
2378.83  35.773  24.167
2379.33  35.645  24.136
2379.83  35.901  24.167
2380.33  35.709  24.136
2380.83  35.773  24.167
2381.33  35.773  24.136
2381.83  35.773  24.105
2382.33  35.645  24.167
2382.83  35.837  24.167
2383.33  35.773  24.136
2383.83  35.709  24.136
2384.33  35.773  24.167
2384.83  35.773  24.136
2385.33  35.773  24.105
2385.83  35.773  24.197
2386.33  35.709  24.197
2386.83  35.773  24.136
2387.33  35.773  24.136
2387.83  35.709  24.167
2388.33  35.837  24.167
2388.83  35.773  24.167
2389.33  35.837  24.136
2389.83  35.773  24.136
2390.33  35.773  24.136
2390.83  35.773  24.167
2391.33  35.837  24.136
2391.83  35.837  24.197
2392.33  35.773  24.197
2392.83  35.837  24.167
2393.33  35.837  24.136
2393.83  35.837  24.136
2394.33  35.773  24.167
2394.83  35.773  24.167
2395.33  35.709  24.136
2395.83  35.773  24.197
2396.33  35.773  24.167
2396.83  35.837  24.167
2397.33  35.773  24.167
2397.83  35.709  24.167
2398.33  35.773  24.136
2398.83  35.773  24.197
2399.33  35.709  24.136
2399.83  35.773  24.136
2400.33  35.837  24.167
2400.83  35.709  24.167
2401.33  35.773  24.167
2401.83  35.773  24.228
2402.33  35.773  24.167
2402.83  35.773  24.105
2403.33  35.773  24.105
2403.83  35.773  24.167
2404.33  35.773  24.167
2404.83  35.709  24.105
2405.33  35.709  24.136
2405.83  35.773  24.136
2406.33  35.773  24.167
2406.83  35.773  24.197
2407.33  35.773  24.136
2407.83  35.773  24.167
2408.33  35.837  24.167
2408.83  35.773  24.167
2409.33  35.773  24.136
2409.83  35.837  24.167
2410.33  35.709  24.197
2410.83  35.709  24.136
2411.33  35.837  24.136
2411.83  35.709  24.167
2412.33  35.837  24.167
2412.83  35.709  24.167
2413.33  35.773  24.197
2413.83  35.901  24.136
2414.33  35.773  24.167
2414.84  35.645  24.167
2415.34  35.837  24.167
2415.84  35.837  24.136
2416.34  35.773  24.167
2416.84  35.837  24.105
2417.34  35.773  24.167
2417.84  35.837  24.167
2418.34  35.773  24.136
2418.84  35.837  24.167
2419.34  35.773  24.167
2419.84  35.837  24.167
2420.34  35.773  24.167
2420.84  35.837  24.167
2421.34  35.709  24.167
2421.84  35.773  24.136
2422.34  35.773  24.167
2422.84  35.901  24.167
2423.34  35.773  24.136
2423.84  35.773  24.167
2424.34  35.773  24.167
2424.84  35.773  24.105
2425.34  35.773  24.136
2425.84  35.837  24.167
2426.34  35.837  24.197
2426.84  35.773  24.167
2427.34  35.773  24.167
2427.84  35.709  24.167
2428.34  35.773  24.167
2428.84  35.773  24.167
2429.34  35.709  24.136
2429.84  35.709  24.136
2430.34  35.773  24.105
2430.84  35.773  24.197
2431.34  35.773  24.167
2431.84  35.773  24.136
2432.34  35.837  24.167
2432.84  35.901  24.167
2433.34  35.773  24.136
2433.84  35.837  24.136
2434.34  35.709  24.167
2434.84  35.837  24.136
2435.34  35.709  24.136
2435.84  35.837  24.167
2436.34  35.709  24.136
2436.84  35.773  24.136
2437.34  35.773  24.167
2437.84  35.773  24.167
2438.34  35.837  24.136
2438.84  35.773  24.167
2439.34  35.709  24.167
2439.84  35.773  24.167
2440.34  35.773  24.197
2440.84  35.901  24.136
2441.34  35.773  24.167
2441.84  35.773  24.136
2442.34  35.773  24.136
2442.84  35.773  24.105
2443.34  35.837  24.167
2443.84  35.837  24.167
2444.34  35.773  24.136
2444.84  35.837  24.167
2445.34  35.773  24.167
2445.84  35.709  24.228
2446.34  35.773  24.167
2446.84  35.837  24.136
2447.34  35.837  24.167
2447.84  35.773  24.167
2448.34  35.773  24.167
2448.84  35.773  24.167
2449.34  35.773  24.167
2449.84  35.773  24.167
2450.34  35.773  24.167
2450.84  35.709  24.167
2451.34  35.837  24.167
2451.84  35.709  24.167
2452.34  35.837  24.167
2452.84  35.837  24.136
2453.34  35.837  24.167
2453.84  35.773  24.136
2454.34  35.837  24.167
2454.84  35.837  24.136
2455.34  35.837  24.167
2455.84  35.773  24.136
2456.34  35.709  24.167
2456.84  35.773  24.167
2457.34  35.709  24.167
2457.84  35.837  24.167
2458.34  35.837  24.167
2458.84  35.773  24.167
2459.34  35.965  24.136
2459.84  35.773  24.167
2460.34  35.773  24.167
2460.84  35.773  24.167
2461.34  35.901  24.167
2461.84  35.837  24.136
2462.34  35.773  24.167
2462.84  35.773  24.197
2463.34  35.837  24.167
2463.84  35.773  24.167
2464.34  35.837  24.167
2464.84  35.773  24.167
2465.34  35.773  24.167
2465.84  35.773  24.136
2466.34  35.773  24.197
2466.84  35.837  24.167
2467.34  35.773  24.167
2467.84  35.773  24.167
2468.34  35.773  24.136
2468.84  35.837  24.167
2469.34  35.837  24.167
2469.84  35.901  24.167
2470.34  35.773  24.197
2470.84  35.901  24.167
2471.34  35.773  24.136
2471.84  35.773  24.167
2472.34  35.837  24.167
2472.84  35.837  24.136
2473.34  35.773  24.167
2473.84  35.773  24.167
2474.34  35.709  24.167
2474.84  35.709  24.167
2475.34  35.773  24.197
2475.84  35.773  24.136
2476.34  35.773  24.167
2476.84  35.837  24.167
2477.34  35.837  24.136
2477.84  35.901  24.167
2478.34  35.773  24.167
2478.84  35.773  24.197
2479.34  35.773  24.136
2479.84  35.837  24.136
2480.34  35.837  24.167
2480.84  35.901  24.197
2481.34  35.773  24.167
2481.84  35.773  24.167
2482.34  35.773  24.167
2482.84  35.773  24.136
2483.34  35.837  24.167
2483.84  35.837  24.136
2484.34  35.773  24.136
2484.84  35.837  24.197
2485.34  35.773  24.197
2485.84  35.773  24.167
2486.34  35.709  24.167
2486.84  35.837  24.167
2487.34  35.773  24.167
2487.84  35.837  24.136
2488.34  35.837  24.167
2488.84  35.837  24.167
2489.34  35.837  24.167
2489.84  35.837  24.167
2490.34  35.901  24.167
2490.84  35.837  24.167
2491.34  35.773  24.136
2491.84  35.837  24.167
2492.34  35.837  24.167
2492.84  35.837  24.167
2493.34  35.773  24.167
2493.84  35.773  24.167
2494.34  35.837  24.197
2494.84  35.837  24.167
2495.34  35.837  24.167
2495.84  35.837  24.167
2496.34  35.837  24.167
2496.84  35.837  24.197
2497.34  35.773  24.136
2497.84  35.901  24.167
2498.34  35.837  24.136
2498.84  35.901  24.197
2499.34  35.837  24.167
2499.84  35.837  24.167
2500.34  35.837  24.167
2500.84  35.901  24.167
2501.34  35.837  24.167
2501.84  35.837  24.167
2502.34  35.709  24.167
2502.84  35.837  24.136
