   2.00  23.878  23.489
   2.50  23.905  23.458
   3.00  23.878  23.489
   3.50  23.905  23.489
   4.00  23.905  23.489
   4.50  23.878  23.458
   5.00  23.905  23.489
   5.50  23.931  23.489
   6.00  23.905  23.489
   6.50  23.878  23.427
   7.00  23.905  23.458
   7.50  23.905  23.489
   8.00  23.905  23.458
   8.50  23.931  23.489
   9.00  23.905  23.520
   9.50  23.905  23.489
  10.00  23.931  23.489
  10.50  23.931  23.520
  11.00  23.957  23.489
  11.50  23.983  23.489
  12.00  23.905  23.489
  12.50  23.931  23.489
  13.00  23.878  23.550
  13.50  23.905  23.520
  14.00  23.931  23.489
  14.50  23.957  23.489
  15.00  23.931  23.520
  15.50  23.905  23.550
  16.00  23.931  23.489
  16.50  23.931  23.489
  17.00  23.905  23.520
  17.50  23.905  23.520
  18.00  23.905  23.489
  18.50  23.931  23.489
  19.00  23.878  23.520
  19.50  23.905  23.489
  20.00  23.905  23.489
  20.50  23.905  23.520
  21.00  23.905  23.520
  21.50  23.905  23.520
  22.00  23.905  23.520
  22.50  23.931  23.489
  23.00  23.878  23.520
  23.50  23.931  23.520
  24.00  23.905  23.489
  24.50  23.905  23.520
  25.00  23.878  23.520
  25.50  23.905  23.458
  26.00  23.905  23.489
  26.50  23.905  23.520
  27.00  23.905  23.520
  27.50  23.878  23.489
  28.00  23.957  23.520
  28.50  23.931  23.550
  29.00  23.931  23.489
  29.50  23.957  23.520
  30.00  23.931  23.520
  30.50  23.957  23.520
  31.00  23.931  23.520
  31.50  23.983  23.520
  32.00  23.931  23.489
  32.50  24.009  23.489
  33.00  23.983  23.550
  33.50  23.931  23.520
  34.00  23.983  23.489
  34.50  24.009  23.489
  35.00  23.983  23.550
  35.50  23.983  23.520
  36.00  23.957  23.550
  36.50  24.061  23.520
  37.00  23.983  23.550
  37.50  24.009  23.520
  38.00  24.009  23.550
  38.50  24.035  23.550
  39.00  24.140  23.520
  39.50  24.087  23.520
  40.00  24.140  23.520
  40.50  24.061  23.550
  41.00  24.087  23.550
  41.50  24.087  23.550
  42.00  24.087  23.550
  42.50  24.113  23.581
  43.00  24.113  23.550
  43.50  24.140  23.581
  44.00  24.113  23.581
  44.50  24.140  23.550
  45.00  24.166  23.581
  45.50  24.140  23.550
  46.00  24.192  23.550
  46.50  24.192  23.550
  47.00  24.218  23.581
  47.51  24.192  23.550
  48.01  24.244  23.550
  48.51  24.166  23.550
  49.01  24.192  23.550
  49.51  24.218  23.581
  50.01  24.192  23.520
  50.51  24.192  23.550
  51.01  24.244  23.581
  51.51  24.244  23.550
  52.01  24.270  23.550
  52.51  24.244  23.581
  53.01  24.244  23.581
  53.51  24.270  23.581
  54.01  24.270  23.520
  54.51  24.270  23.520
  55.01  24.270  23.581
  55.51  24.270  23.581
  56.01  24.270  23.550
  56.51  24.296  23.581
  57.01  24.348  23.581
  57.51  24.296  23.550
  58.01  24.296  23.581
  58.51  24.296  23.581
  59.01  24.270  23.581
  59.51  24.296  23.550
  60.01  24.375  23.550
  60.51  24.296  23.581
  61.01  24.322  23.550
  61.51  24.348  23.581
  62.01  24.348  23.612
  62.51  24.322  23.581
  63.01  24.322  23.581
  63.51  24.348  23.581
  64.01  24.348  23.581
  64.51  24.348  23.581
  65.01  24.375  23.550
  65.51  24.401  23.550
  66.01  24.375  23.612
  66.51  24.375  23.581
  67.01  24.401  23.581
  67.51  24.322  23.612
  68.01  24.375  23.612
  68.51  24.427  23.550
  69.01  24.375  23.581
  69.51  24.427  23.550
  70.01  24.401  23.581
  70.51  24.453  23.581
  71.01  24.401  23.550
  71.51  24.401  23.581
  72.01  24.427  23.581
  72.51  24.427  23.612
  73.01  24.427  23.581
  73.51  24.427  23.612
  74.01  24.401  23.581
  74.51  24.453  23.581
  75.01  24.479  23.581
  75.51  24.453  23.581
  76.01  24.427  23.581
  76.51  24.479  23.581
  77.01  24.427  23.581
  77.51  24.453  23.581
  78.01  24.453  23.581
  78.51  24.453  23.612
  79.01  24.479  23.581
  79.51  24.479  23.581
  80.01  24.453  23.581
  80.51  24.479  23.581
  81.01  24.479  23.550
  81.51  24.479  23.550
  82.01  24.505  23.581
  82.51  24.505  23.581
  83.01  24.505  23.581
  83.51  24.505  23.581
  84.01  24.505  23.581
  84.51  24.505  23.612
  85.01  24.531  23.550
  85.51  24.531  23.581
  86.01  24.505  23.581
  86.51  24.531  23.643
  87.01  24.531  23.581
  87.51  24.479  23.581
  88.01  24.531  23.612
  88.51  24.531  23.581
  89.01  24.557  23.581
  89.51  24.557  23.550
  90.01  24.557  23.581
  90.51  24.531  23.581
  91.01  24.557  23.612
  91.51  24.583  23.612
  92.01  24.557  23.581
  92.51  24.557  23.581
  93.01  24.583  23.581
  93.51  24.583  23.581
  94.01  24.583  23.581
  94.51  24.583  23.581
  95.01  24.610  23.581
  95.51  24.583  23.581
  96.01  24.583  23.581
  96.51  24.636  23.550
  97.01  24.610  23.581
  97.51  24.610  23.581
  98.01  24.610  23.612
  98.51  24.583  23.612
  99.01  24.610  23.612
  99.51  24.662  23.612
 100.01  24.636  23.581
 100.51  24.610  23.643
 101.01  24.583  23.612
 101.51  24.636  23.581
 102.01  24.636  23.581
 102.51  24.662  23.581
 103.01  24.636  23.643
 103.51  24.662  23.612
 104.01  24.662  23.581
 104.51  24.636  23.581
 105.01  24.688  23.612
 105.51  24.636  23.581
 106.01  24.688  23.643
 106.51  24.688  23.612
 107.01  24.688  23.612
 107.51  24.662  23.581
 108.01  24.688  23.643
 108.51  24.662  23.612
 109.01  24.662  23.581
 109.51  24.662  23.643
 110.01  24.662  23.612
 110.51  24.662  23.612
 111.01  24.662  23.581
 111.51  24.688  23.581
 112.01  24.662  23.581
 112.51  24.662  23.612
 113.01  24.662  23.581
 113.51  24.688  23.581
 114.01  24.662  23.581
 114.51  24.662  23.612
 115.01  24.662  23.643
 115.51  24.636  23.581
 116.01  24.714  23.612
 116.51  24.688  23.612
 117.01  24.662  23.643
 117.51  24.636  23.581
 118.01  24.688  23.581
 118.51  24.662  23.581
 119.01  24.662  23.612
 119.51  24.688  23.612
 120.01  24.662  23.581
 120.51  24.688  23.612
 121.01  24.714  23.581
 121.51  24.714  23.674
 122.01  24.662  23.581
 122.51  24.688  23.612
 123.01  24.714  23.612
 123.51  24.662  23.581
 124.01  24.688  23.581
 124.51  24.688  23.581
 125.01  24.688  23.581
 125.51  24.714  23.612
 126.01  24.714  23.581
 126.51  24.740  23.581
 127.01  24.688  23.643
 127.51  24.714  23.581
 128.01  24.714  23.612
 128.51  24.714  23.581
 129.01  24.714  23.581
 129.51  24.688  23.581
 130.01  24.740  23.612
 130.51  24.688  23.581
 131.01  24.766  23.581
 131.51  24.714  23.674
 132.01  24.714  23.612
 132.51  24.740  23.612
 133.01  24.766  23.612
 133.51  24.740  23.581
 134.01  24.714  23.612
 134.51  24.714  23.612
 135.01  24.740  23.612
 135.51  24.792  23.612
 136.01  24.740  23.612
 136.51  24.740  23.581
 137.01  24.740  23.612
 137.51  24.766  23.581
 138.01  24.714  23.612
 138.51  24.766  23.643
 139.01  24.740  23.612
 139.51  24.766  23.612
 140.01  24.740  23.612
 140.51  24.766  23.612
 141.01  24.766  23.612
 141.51  24.792  23.581
 142.01  24.766  23.581
 142.51  24.792  23.612
 143.01  24.766  23.612
 143.51  24.792  23.612
 144.01  24.792  23.581
 144.51  24.792  23.612
 145.01  24.792  23.612
 145.51  24.792  23.612
 146.01  24.740  23.612
 146.51  24.819  23.581
 147.01  24.792  23.612
 147.51  24.819  23.550
 148.01  24.845  23.550
 148.51  24.819  23.581
 149.01  24.819  23.643
 149.51  24.792  23.612
 150.01  24.792  23.612
 150.51  24.819  23.612
 151.01  24.819  23.612
 151.51  24.819  23.581
 152.01  24.819  23.643
 152.51  24.845  23.643
 153.01  24.845  23.612
 153.51  24.845  23.581
 154.01  24.845  23.612
 154.51  24.819  23.612
 155.01  24.819  23.581
 155.51  24.819  23.612
 156.01  24.819  23.612
 156.51  24.845  23.643
 157.01  24.819  23.612
 157.51  24.819  23.643
 158.01  24.819  23.581
 158.51  24.845  23.581
 159.01  24.845  23.612
 159.51  24.845  23.581
 160.01  24.871  23.674
 160.51  24.871  23.612
 161.01  24.871  23.612
 161.51  24.819  23.612
 162.01  24.871  23.612
 162.51  24.897  23.612
 163.01  24.897  23.643
 163.51  24.871  23.612
 164.01  24.897  23.612
 164.51  24.871  23.612
 165.01  24.871  23.612
 165.51  24.897  23.612
 166.01  24.949  23.643
 166.51  24.897  23.612
 167.01  24.923  23.612
 167.51  24.923  23.612
 168.01  24.923  23.612
 168.51  24.897  23.643
 169.01  24.923  23.612
 169.51  24.897  23.612
 170.01  24.897  23.581
 170.51  24.923  23.612
 171.01  24.949  23.612
 171.52  24.897  23.612
 172.02  24.923  23.581
 172.52  24.949  23.612
 173.02  24.923  23.612
 173.52  24.923  23.612
 174.02  24.923  23.612
 174.52  24.949  23.612
 175.02  24.949  23.643
 175.52  24.975  23.643
 176.02  24.949  23.612
 176.52  24.949  23.612
 177.02  24.975  23.643
 177.52  24.975  23.612
 178.02  24.975  23.643
 178.52  24.949  23.612
 179.02  24.975  23.612
 179.52  24.975  23.643
 180.02  24.975  23.612
 180.52  24.975  23.612
 181.02  24.975  23.643
 181.52  25.005  23.643
 182.02  25.005  23.643
 182.52  24.975  23.612
 183.02  25.005  23.612
 183.52  25.005  23.612
 184.02  25.005  23.643
 184.52  25.005  23.643
 185.02  25.005  23.612
 185.52  25.005  23.643
 186.02  25.005  23.643
 186.52  25.005  23.612
 187.02  25.114  23.612
 187.52  25.005  23.612
 188.02  25.222  23.612
 188.52  25.114  23.643
 189.02  25.114  23.643
 189.52  25.114  23.643
 190.02  25.114  23.643
 190.52  25.005  23.581
 191.02  25.114  23.612
 191.52  25.114  23.612
 192.02  25.222  23.612
 192.52  25.114  23.612
 193.02  25.005  23.612
 193.52  25.330  23.674
 194.02  25.330  23.612
 194.52  25.114  23.612
 195.02  25.114  23.643
 195.52  25.222  23.643
 196.02  25.222  23.612
 196.52  25.114  23.643
 197.02  25.222  23.612
 197.52  25.222  23.643
 198.02  25.222  23.643
 198.52  25.330  23.612
 199.02  25.330  23.612
 199.52  25.222  23.643
 200.02  25.222  23.612
 200.52  25.330  23.612
 201.02  25.222  23.674
 201.52  25.330  23.643
 202.02  25.330  23.643
 202.52  25.547  23.643
 203.02  25.438  23.643
 203.52  25.438  23.643
 204.02  25.438  23.643
 204.52  25.330  23.643
 205.02  25.438  23.612
 205.52  25.438  23.643
 206.02  25.547  23.612
 206.52  25.438  23.643
 207.02  25.438  23.612
 207.52  25.547  23.612
 208.02  25.655  23.643
 208.52  25.655  23.612
 209.02  25.547  23.643
 209.52  25.547  23.612
 210.02  25.547  23.643
 210.52  25.655  23.612
 211.02  25.438  23.612
 211.52  25.547  23.643
 212.02  25.547  23.643
 212.52  25.547  23.643
 213.02  25.547  23.612
 213.52  25.655  23.612
 214.02  25.547  23.612
 214.52  25.547  23.612
 215.02  25.655  23.643
 215.52  25.547  23.643
 216.02  25.763  23.643
 216.52  25.547  23.643
 217.02  25.763  23.643
 217.52  25.655  23.643
 218.02  25.438  23.674
 218.52  25.655  23.612
 219.02  25.655  23.612
 219.52  25.763  23.674
 220.02  25.763  23.643
 220.52  25.655  23.643
 221.02  25.871  23.643
 221.52  25.763  23.612
 222.02  25.763  23.612
 222.52  25.871  23.612
 223.02  25.438  23.612
 223.52  25.871  23.674
 224.02  25.871  23.643
 224.52  25.763  23.612
 225.02  25.763  23.612
 225.52  26.088  23.612
 226.02  25.763  23.581
 226.52  25.871  23.643
 227.02  25.980  23.612
 227.52  26.304  23.612
 228.02  25.871  23.612
 228.52  25.871  23.581
 229.02  25.871  23.643
 229.52  25.871  23.612
 230.02  25.980  23.612
 230.52  25.871  23.612
 231.02  25.980  23.612
 231.52  25.763  23.612
 232.02  25.763  23.643
 232.52  25.980  23.643
 233.02  25.871  23.643
 233.52  25.980  23.643
 234.02  25.980  23.643
 234.52  26.088  23.643
 235.02  25.980  23.612
 235.52  25.980  23.643
 236.02  26.088  23.643
 236.52  25.980  23.674
 237.02  25.980  23.612
 237.52  26.196  23.612
 238.02  26.196  23.643
 238.52  26.088  23.612
 239.02  26.088  23.612
 239.52  26.196  23.643
 240.02  26.088  23.612
 240.52  26.196  23.643
 241.02  25.980  23.612
 241.52  26.088  23.612
 242.02  26.304  23.612
 242.52  25.980  23.612
 243.02  26.196  23.643
 243.52  26.196  23.643
 244.02  26.304  23.612
 244.52  26.088  23.612
 245.02  26.196  23.612
 245.52  26.304  23.643
 246.02  26.304  23.581
 246.52  26.304  23.612
 247.02  26.304  23.612
 247.52  26.413  23.643
 248.02  26.196  23.612
 248.52  26.413  23.612
 249.02  26.413  23.674
 249.52  26.521  23.643
 250.02  26.413  23.612
 250.52  26.196  23.643
 251.02  26.413  23.612
 251.52  26.413  23.643
 252.02  26.413  23.612
 252.52  26.413  23.643
 253.02  26.413  23.612
 253.52  26.413  23.612
 254.02  26.413  23.643
 254.52  26.521  23.705
 255.02  26.521  23.612
 255.52  26.413  23.612
 256.02  26.521  23.612
 256.52  26.413  23.612
 257.02  26.304  23.643
 257.52  26.521  23.612
 258.02  26.846  23.643
 258.52  26.413  23.612
 259.02  26.629  23.643
 259.52  26.629  23.643
 260.02  26.629  23.643
 260.52  26.521  23.612
 261.02  26.413  23.612
 261.52  26.737  23.612
 262.02  26.521  23.643
 262.52  26.629  23.643
 263.02  26.521  23.612
 263.52  26.629  23.612
 264.02  26.629  23.612
 264.52  26.629  23.643
 265.02  26.629  23.643
 265.52  26.521  23.612
 266.02  26.629  23.643
 266.52  26.737  23.643
 267.02  26.737  23.643
 267.52  26.629  23.612
 268.02  26.629  23.643
 268.52  26.846  23.612
 269.02  26.737  23.612
 269.52  26.737  23.581
 270.02  26.629  23.643
 270.52  26.737  23.643
 271.02  26.737  23.612
 271.52  26.846  23.612
 272.02  26.737  23.643
 272.52  26.846  23.612
 273.02  26.737  23.643
 273.52  26.846  23.612
 274.02  26.846  23.612
 274.52  26.737  23.612
 275.02  26.629  23.643
 275.52  26.846  23.643
 276.02  26.737  23.643
 276.52  26.954  23.612
 277.02  26.846  23.612
 277.52  26.954  23.612
 278.02  26.954  23.612
 278.52  26.954  23.612
 279.02  26.737  23.612
 279.52  26.846  23.643
 280.02  26.954  23.612
 280.52  27.062  23.612
 281.02  26.846  23.612
 281.52  26.954  23.643
 282.02  26.846  23.643
 282.52  26.954  23.612
 283.02  27.062  23.612
 283.52  26.954  23.643
 284.02  26.954  23.643
 284.52  26.954  23.612
 285.03  27.062  23.612
 285.53  27.170  23.612
 286.03  26.954  23.612
 286.53  27.170  23.674
 287.03  26.954  23.643
 287.53  27.279  23.643
 288.03  26.954  23.612
 288.53  27.062  23.612
 289.03  27.062  23.643
 289.53  27.279  23.643
 290.03  27.170  23.643
 290.53  27.170  23.612
 291.03  27.170  23.643
 291.53  27.170  23.643
 292.03  27.279  23.643
 292.53  27.279  23.581
 293.03  27.170  23.643
 293.53  27.062  23.612
 294.03  27.279  23.612
 294.53  27.279  23.643
 295.03  27.495  23.643
 295.53  27.170  23.643
 296.03  27.279  23.643
 296.53  27.170  23.643
 297.03  27.279  23.612
 297.53  27.495  23.643
 298.03  27.387  23.643
 298.53  27.062  23.643
 299.03  27.279  23.612
 299.53  27.170  23.612
 300.03  27.279  23.643
 300.53  27.387  23.643
 301.03  27.387  23.612
 301.53  27.279  23.643
 302.03  27.279  23.643
 302.53  27.387  23.643
 303.03  27.387  23.643
 303.53  27.387  23.612
 304.03  27.279  23.612
 304.53  27.387  23.643
 305.03  27.387  23.643
 305.53  27.279  23.643
 306.03  27.279  23.643
 306.53  27.387  23.612
 307.03  27.387  23.612
 307.53  27.387  23.643
 308.03  27.387  23.612
 308.53  27.387  23.643
 309.03  27.387  23.612
 309.53  27.387  23.612
 310.03  27.387  23.612
 310.53  27.387  23.643
 311.03  27.495  23.643
 311.53  27.603  23.643
 312.03  27.495  23.674
 312.53  27.387  23.612
 313.03  27.495  23.581
 313.53  27.387  23.612
 314.03  27.603  23.612
 314.53  27.495  23.643
 315.03  27.495  23.643
 315.53  27.603  23.612
 316.03  27.603  23.643
 316.53  27.495  23.643
 317.03  27.495  23.674
 317.53  27.603  23.643
 318.03  27.820  23.643
 318.53  27.603  23.643
 319.03  27.603  23.643
 319.53  27.603  23.612
 320.03  27.712  23.643
 320.53  27.603  23.612
 321.03  27.603  23.674
 321.53  27.603  23.674
 322.03  27.603  23.643
 322.53  27.712  23.643
 323.03  27.603  23.612
 323.53  27.820  23.581
 324.03  27.603  23.643
 324.53  27.603  23.643
 325.03  27.603  23.612
 325.53  27.820  23.643
 326.03  27.712  23.643
 326.53  27.712  23.643
 327.03  27.712  23.612
 327.53  27.820  23.643
 328.03  27.820  23.643
 328.53  27.820  23.643
 329.03  27.820  23.643
 329.53  27.820  23.581
 330.03  27.820  23.581
 330.53  27.928  23.643
 331.03  27.820  23.643
 331.53  27.928  23.612
 332.03  27.928  23.643
 332.53  27.928  23.612
 333.03  28.036  23.612
 333.53  27.820  23.643
 334.03  27.820  23.612
 334.53  27.928  23.643
 335.03  27.820  23.643
 335.53  27.928  23.612
 336.03  27.928  23.643
 336.53  28.036  23.674
 337.03  27.928  23.674
 337.53  27.928  23.612
 338.03  27.820  23.643
 338.53  28.036  23.612
 339.03  28.036  23.674
 339.53  27.928  23.643
 340.03  27.928  23.612
 340.53  27.928  23.643
 341.03  28.036  23.612
 341.53  28.145  23.612
 342.03  27.928  23.612
 342.53  27.928  23.643
 343.03  28.036  23.643
 343.53  28.036  23.674
 344.03  28.036  23.612
 344.53  28.036  23.643
 345.03  28.036  23.612
 345.53  28.036  23.612
 346.03  28.145  23.643
 346.53  28.036  23.643
 347.03  28.145  23.643
 347.53  28.145  23.643
 348.03  28.145  23.643
 348.53  28.145  23.643
 349.03  28.036  23.643
 349.53  28.145  23.674
 350.03  28.145  23.612
 350.53  28.361  23.612
 351.03  28.145  23.674
 351.53  28.253  23.643
 352.03  28.253  23.674
 352.53  28.361  23.643
 353.03  28.253  23.674
 353.53  28.253  23.643
 354.03  28.253  23.643
 354.53  28.253  23.643
 355.03  28.361  23.643
 355.53  28.253  23.674
 356.03  28.361  23.643
 356.53  28.253  23.643
 357.03  28.253  23.643
 357.53  28.361  23.643
 358.03  28.361  23.643
 358.53  28.253  23.643
 359.03  28.253  23.643
 359.53  28.361  23.581
 360.03  28.469  23.643
 360.53  28.469  23.612
 361.03  28.361  23.612
 361.53  28.469  23.674
 362.03  28.469  23.643
 362.53  28.253  23.612
 363.03  28.469  23.674
 363.53  28.361  23.674
 364.03  28.361  23.612
 364.53  28.469  23.643
 365.03  28.578  23.643
 365.53  28.469  23.643
 366.03  28.469  23.643
 366.53  28.361  23.643
 367.03  28.361  23.643
 367.53  28.469  23.643
 368.03  28.578  23.674
 368.53  28.469  23.643
 369.03  28.361  23.643
 369.53  28.578  23.643
 370.03  28.469  23.612
 370.53  28.686  23.643
 371.03  28.578  23.643
 371.53  28.578  23.643
 372.03  28.578  23.643
 372.53  28.578  23.612
 373.03  28.361  23.643
 373.53  28.578  23.643
 374.03  28.578  23.674
 374.53  28.578  23.643
 375.03  28.686  23.643
 375.53  28.578  23.643
 376.03  28.469  23.643
 376.53  28.578  23.643
 377.03  28.469  23.643
 377.53  28.469  23.643
 378.03  28.578  23.612
 378.53  28.578  23.643
 379.03  28.578  23.612
 379.53  28.686  23.612
 380.03  28.578  23.612
 380.53  28.686  23.674
 381.03  28.794  23.643
 381.53  28.578  23.643
 382.03  28.902  23.643
 382.53  28.686  23.674
 383.03  28.686  23.612
 383.53  28.578  23.705
 384.03  28.686  23.643
 384.53  28.794  23.643
 385.03  28.794  23.674
 385.53  28.902  23.612
 386.03  28.794  23.612
 386.53  28.794  23.674
 387.04  28.794  23.612
 387.54  28.902  23.612
 388.04  28.902  23.643
 388.54  28.686  23.674
 389.04  28.794  23.643
 389.54  28.794  23.643
 390.04  28.902  23.643
 390.54  29.011  23.643
 391.04  28.902  23.705
 391.54  28.794  23.674
 392.04  28.902  23.674
 392.54  28.902  23.674
 393.04  29.011  23.705
 393.54  28.794  23.643
 394.04  28.794  23.674
 394.54  28.902  23.674
 395.04  29.011  23.643
 395.54  28.794  23.674
 396.04  28.902  23.643
 396.54  29.011  23.643
 397.04  28.902  23.643
 397.54  28.902  23.643
 398.04  29.011  23.674
 398.54  29.011  23.643
 399.04  28.902  23.643
 399.54  29.011  23.643
 400.04  29.011  23.643
 400.54  29.011  23.612
 401.04  29.119  23.674
 401.54  28.794  23.612
 402.04  29.011  23.643
 402.54  29.227  23.643
 403.04  29.119  23.643
 403.54  29.119  23.581
 404.04  29.119  23.643
 404.54  29.119  23.643
 405.04  29.119  23.612
 405.54  29.119  23.643
 406.04  29.119  23.643
 406.54  29.011  23.612
 407.04  29.119  23.643
 407.54  29.119  23.612
 408.04  29.119  23.643
 408.54  29.227  23.643
 409.04  29.011  23.643
 409.54  29.119  23.643
 410.04  29.119  23.705
 410.54  29.227  23.643
 411.04  29.119  23.674
 411.54  29.227  23.674
 412.04  29.011  23.674
 412.54  29.227  23.674
 413.04  29.335  23.643
 413.54  29.119  23.643
 414.04  29.227  23.674
 414.54  29.227  23.643
 415.04  29.227  23.643
 415.54  29.335  23.705
 416.04  29.227  23.643
 416.54  29.227  23.643
 417.04  29.335  23.612
 417.54  29.119  23.643
 418.04  29.227  23.643
 418.54  29.227  23.643
 419.04  29.335  23.612
 419.54  29.227  23.643
 420.04  29.335  23.674
 420.54  29.444  23.674
 421.04  29.444  23.612
 421.54  29.227  23.643
 422.04  29.227  23.674
 422.54  29.227  23.643
 423.04  29.335  23.705
 423.54  29.335  23.674
 424.04  29.335  23.674
 424.54  29.335  23.643
 425.04  29.227  23.643
 425.54  29.444  23.643
 426.04  29.227  23.643
 426.54  29.660  23.643
 427.04  29.335  23.643
 427.54  29.444  23.643
 428.04  29.335  23.643
 428.54  29.227  23.643
 429.04  29.335  23.643
 429.54  29.444  23.643
 430.04  29.444  23.643
 430.54  29.444  23.643
 431.04  29.444  23.643
 431.54  29.660  23.643
 432.04  29.552  23.643
 432.54  29.552  23.643
 433.04  29.660  23.612
 433.54  29.552  23.643
 434.04  29.444  23.612
 434.54  29.552  23.674
 435.04  29.552  23.674
 435.54  29.444  23.674
 436.04  29.552  23.674
 436.54  29.552  23.643
 437.04  29.552  23.674
 437.54  29.552  23.643
 438.04  29.552  23.674
 438.54  29.552  23.674
 439.04  29.444  23.674
 439.54  29.552  23.674
 440.04  29.660  23.643
 440.54  29.552  23.643
 441.04  29.552  23.612
 441.54  29.660  23.674
 442.04  29.552  23.674
 442.54  29.660  23.643
 443.04  29.660  23.705
 443.54  29.660  23.643
 444.04  29.552  23.643
 444.54  29.660  23.643
 445.04  29.660  23.674
 445.54  29.660  23.643
 446.04  29.660  23.643
 446.54  29.660  23.643
 447.04  29.552  23.674
 447.54  29.768  23.643
 448.04  29.768  23.674
 448.54  29.768  23.674
 449.04  29.660  23.643
 449.54  29.660  23.643
 450.04  29.552  23.643
 450.54  29.877  23.643
 451.04  29.768  23.643
 451.54  29.768  23.674
 452.04  29.660  23.643
 452.54  29.768  23.643
 453.04  29.768  23.643
 453.54  29.768  23.643
 454.04  29.768  23.674
 454.54  29.768  23.643
 455.04  29.768  23.705
 455.54  29.768  23.612
 456.04  29.877  23.674
 456.54  29.660  23.643
 457.04  29.768  23.674
 457.54  29.877  23.643
 458.04  29.877  23.674
 458.54  29.877  23.643
 459.04  29.660  23.643
 459.54  29.877  23.674
 460.04  29.660  23.674
 460.54  29.877  23.643
 461.04  29.877  23.612
 461.54  29.768  23.674
 462.04  29.985  23.643
 462.54  29.877  23.674
 463.04  29.768  23.643
 463.54  29.877  23.674
 464.04  29.877  23.643
 464.54  29.985  23.674
 465.04  29.985  23.674
 465.54  29.877  23.674
 466.04  29.985  23.674
 466.54  29.985  23.705
 467.04  29.985  23.674
 467.54  29.877  23.643
 468.04  29.985  23.643
 468.54  29.985  23.643
 469.04  29.877  23.674
 469.54  29.877  23.735
 470.04  29.985  23.643
 470.54  29.985  23.643
 471.04  30.217  23.643
 471.54  29.985  23.674
 472.04  29.985  23.674
 472.54  29.985  23.674
 473.04  30.101  23.705
 473.54  30.101  23.674
 474.04  29.985  23.643
 474.54  30.101  23.674
 475.04  30.101  23.643
 475.54  30.101  23.643
 476.04  30.101  23.643
 476.54  30.217  23.612
 477.04  30.217  23.674
 477.54  29.985  23.674
 478.04  30.101  23.674
 478.54  30.217  23.643
 479.04  30.101  23.643
 479.54  29.985  23.674
 480.04  30.101  23.674
 480.54  30.101  23.705
 481.04  30.101  23.674
 481.54  30.217  23.674
 482.04  30.451  23.674
 482.54  30.101  23.674
 483.04  30.101  23.674
 483.54  30.101  23.674
 484.04  30.217  23.674
 484.54  30.217  23.674
 485.04  30.217  23.643
 485.54  30.217  23.674
 486.04  30.101  23.705
 486.54  30.217  23.674
 487.04  30.334  23.643
 487.54  30.451  23.643
 488.04  30.217  23.643
 488.54  30.217  23.643
 489.04  30.451  23.674
 489.54  30.217  23.643
 490.04  30.217  23.643
 490.54  30.217  23.643
 491.04  30.217  23.643
 491.54  30.217  23.643
 492.04  30.217  23.643
 492.54  30.217  23.643
 493.04  30.217  23.674
 493.54  30.334  23.674
 494.04  30.334  23.674
 494.54  30.451  23.674
 495.04  30.334  23.674
 495.54  30.334  23.643
 496.04  30.334  23.674
 496.54  30.334  23.674
 497.04  30.451  23.674
 497.54  30.334  23.643
 498.04  30.334  23.643
 498.54  30.334  23.643
 499.04  30.334  23.674
 499.54  30.334  23.674
 500.05  30.568  23.643
 500.55  30.451  23.674
 501.05  30.451  23.674
 501.55  30.451  23.674
 502.05  30.451  23.643
 502.55  30.451  23.674
 503.05  30.568  23.643
 503.55  30.451  23.643
 504.05  30.685  23.674
 504.55  30.568  23.674
 505.05  30.451  23.674
 505.55  30.217  23.643
 506.05  30.568  23.643
 506.55  30.568  23.674
 507.05  30.568  23.674
 507.55  30.451  23.674
 508.05  30.334  23.612
 508.55  30.568  23.674
 509.05  30.451  23.674
 509.55  30.451  23.674
 510.05  30.568  23.674
 510.55  30.568  23.643
 511.05  30.568  23.705
 511.55  30.568  23.643
 512.05  30.568  23.674
 512.55  30.568  23.643
 513.05  30.568  23.674
 513.55  30.568  23.674
 514.05  30.568  23.674
 514.55  30.568  23.643
 515.05  30.685  23.705
 515.55  30.568  23.643
 516.05  30.685  23.674
 516.55  30.685  23.674
 517.05  30.568  23.705
 517.55  30.685  23.674
 518.05  30.685  23.643
 518.55  30.685  23.643
 519.05  30.568  23.612
 519.55  30.685  23.674
 520.05  30.451  23.643
 520.55  30.685  23.643
 521.05  30.685  23.674
 521.55  30.685  23.674
 522.05  30.685  23.643
 522.55  30.802  23.674
 523.05  30.685  23.674
 523.55  30.568  23.674
 524.05  30.802  23.674
 524.55  30.685  23.674
 525.05  30.802  23.674
 525.55  30.568  23.674
 526.05  31.036  23.674
 526.55  30.802  23.674
 527.05  30.685  23.643
 527.55  30.802  23.674
 528.05  30.919  23.674
 528.55  30.802  23.643
 529.05  30.802  23.705
 529.55  30.685  23.674
 530.05  30.802  23.674
 530.55  30.919  23.674
 531.05  30.919  23.643
 531.55  30.802  23.674
 532.05  30.802  23.674
 532.55  30.802  23.705
 533.05  30.802  23.674
 533.55  30.802  23.674
 534.05  30.919  23.674
 534.55  30.919  23.643
 535.05  30.802  23.674
 535.55  31.152  23.674
 536.05  30.919  23.705
 536.55  30.802  23.674
 537.05  30.802  23.643
 537.55  30.919  23.705
 538.05  30.919  23.643
 538.55  30.919  23.643
 539.05  31.036  23.674
 539.55  30.919  23.674
 540.05  30.919  23.674
 540.55  30.919  23.674
 541.05  30.919  23.674
 541.55  30.919  23.674
 542.05  30.919  23.643
 542.55  31.036  23.674
 543.05  31.036  23.643
 543.55  30.919  23.705
 544.05  30.919  23.674
 544.55  31.036  23.674
 545.05  31.036  23.643
 545.55  30.919  23.674
 546.05  31.036  23.705
 546.55  31.036  23.674
 547.05  31.036  23.705
 547.55  31.152  23.674
 548.05  31.036  23.674
 548.55  31.036  23.674
 549.05  31.036  23.705
 549.55  31.036  23.674
 550.05  31.036  23.705
 550.55  31.036  23.674
 551.05  31.152  23.674
 551.55  31.036  23.643
 552.05  30.919  23.674
 552.55  31.036  23.674
 553.05  31.152  23.674
 553.55  31.036  23.674
 554.05  31.036  23.705
 554.55  31.152  23.612
 555.05  31.036  23.674
 555.55  31.152  23.674
 556.05  31.152  23.705
 556.55  31.036  23.674
 557.05  31.152  23.643
 557.55  31.386  23.674
 558.05  31.036  23.705
 558.55  31.036  23.643
 559.05  31.152  23.674
 559.55  31.152  23.643
 560.05  31.036  23.705
 560.55  31.152  23.705
 561.05  31.152  23.674
 561.55  31.269  23.674
 562.05  31.269  23.674
 562.55  31.152  23.643
 563.05  31.269  23.674
 563.55  31.269  23.674
 564.05  31.036  23.674
 564.55  31.152  23.674
 565.05  31.152  23.674
 565.55  31.269  23.674
 566.05  31.152  23.674
 566.55  31.152  23.674
 567.05  31.269  23.643
 567.55  31.269  23.674
 568.05  31.152  23.674
 568.55  31.152  23.674
 569.05  31.386  23.674
 569.55  31.152  23.705
 570.05  31.386  23.674
 570.55  31.269  23.674
 571.05  31.269  23.674
 571.55  31.152  23.674
 572.05  31.386  23.674
 572.55  31.386  23.643
 573.05  31.269  23.674
 573.55  31.152  23.674
 574.05  31.269  23.674
 574.55  31.386  23.674
 575.05  31.386  23.643
 575.55  31.269  23.674
 576.05  31.269  23.674
 576.55  31.386  23.674
 577.05  31.620  23.674
 577.55  31.620  23.674
 578.05  31.386  23.674
 578.55  31.386  23.674
 579.05  31.386  23.643
 579.55  31.269  23.643
 580.05  31.386  23.643
 580.55  31.269  23.674
 581.05  31.386  23.674
 581.55  31.503  23.674
 582.05  31.386  23.674
 582.55  31.386  23.612
 583.05  31.503  23.674
 583.55  31.503  23.674
 584.05  31.503  23.643
 584.55  31.386  23.674
 585.05  31.503  23.705
 585.55  31.386  23.674
 586.05  31.503  23.674
 586.55  31.503  23.674
 587.05  31.503  23.705
 587.55  31.503  23.705
 588.05  31.503  23.674
 588.55  31.503  23.643
 589.05  31.503  23.674
 589.55  31.503  23.674
 590.05  31.620  23.674
 590.55  31.620  23.705
 591.05  31.503  23.674
 591.55  31.503  23.674
 592.05  31.503  23.674
 592.55  31.737  23.674
 593.05  31.620  23.705
 593.55  31.737  23.674
 594.05  31.620  23.643
 594.55  31.503  23.674
 595.05  31.503  23.674
 595.55  31.620  23.674
 596.05  31.620  23.674
 596.55  31.737  23.674
 597.05  31.737  23.674
 597.55  31.620  23.674
 598.05  31.737  23.705
 598.55  31.620  23.674
 599.05  31.503  23.612
 599.55  31.620  23.674
 600.05  31.620  23.674
 600.55  31.620  23.705
 601.05  31.620  23.674
 601.55  31.620  23.674
 602.05  31.620  23.705
 602.55  31.737  23.674
 603.05  31.620  23.705
 603.55  31.503  23.705
 604.05  31.737  23.674
 604.55  31.737  23.674
 605.05  31.503  23.705
 605.55  31.737  23.674
 606.05  31.620  23.705
 606.55  31.620  23.674
 607.05  31.620  23.643
 607.55  31.620  23.674
 608.05  31.737  23.674
 608.55  31.737  23.674
 609.05  31.620  23.705
 609.55  31.737  23.674
 610.05  31.737  23.705
 610.55  31.737  23.674
 611.05  31.854  23.705
 611.55  31.854  23.674
 612.05  31.854  23.674
 612.55  31.737  23.674
 613.05  31.620  23.643
 613.55  31.737  23.674
 614.05  31.854  23.643
 614.55  31.620  23.674
 615.05  31.854  23.674
 615.55  31.737  23.674
 616.05  31.737  23.674
 616.55  31.737  23.643
 617.05  31.854  23.705
 617.55  31.737  23.705
 618.05  31.737  23.674
 618.55  31.854  23.705
 619.05  31.971  23.674
 619.55  31.737  23.674
 620.05  31.971  23.674
 620.55  31.854  23.643
 621.05  31.854  23.674
 621.55  31.971  23.674
 622.05  31.737  23.674
 622.55  31.737  23.674
 623.05  31.971  23.674
 623.55  31.737  23.674
 624.05  31.854  23.705
 624.56  31.854  23.705
 625.06  31.737  23.674
 625.56  32.087  23.674
 626.06  31.971  23.643
 626.56  31.737  23.705
 627.06  31.854  23.674
 627.56  31.971  23.643
 628.06  31.971  23.674
 628.56  31.854  23.705
 629.06  31.971  23.705
 629.56  31.737  23.674
 630.06  32.087  23.674
 630.56  31.971  23.674
 631.06  31.971  23.674
 631.56  31.971  23.705
 632.06  31.971  23.674
 632.56  32.087  23.643
 633.06  31.971  23.674
 633.56  31.854  23.643
 634.06  31.971  23.705
 634.56  31.971  23.735
 635.06  32.087  23.705
 635.56  32.087  23.674
 636.06  31.971  23.674
 636.56  32.087  23.674
 637.06  31.971  23.705
 637.56  31.971  23.674
 638.06  32.204  23.674
 638.56  32.087  23.705
 639.06  32.087  23.674
 639.56  32.087  23.674
 640.06  32.204  23.674
 640.56  32.087  23.705
 641.06  32.204  23.705
 641.56  32.087  23.705
 642.06  31.971  23.643
 642.56  31.971  23.705
 643.06  32.087  23.674
 643.56  32.087  23.643
 644.06  32.087  23.674
 644.56  32.087  23.674
 645.06  32.087  23.705
 645.56  32.204  23.643
 646.06  32.087  23.674
 646.56  31.971  23.674
 647.06  32.087  23.705
 647.56  32.087  23.705
 648.06  32.087  23.674
 648.56  32.087  23.705
 649.06  32.087  23.643
 649.56  32.204  23.612
 650.06  32.204  23.674
 650.56  31.971  23.674
 651.06  32.087  23.674
 651.56  32.204  23.674
 652.06  32.204  23.705
 652.56  32.087  23.643
 653.06  32.204  23.674
 653.56  32.321  23.674
 654.06  32.321  23.705
 654.56  32.204  23.705
 655.06  32.204  23.674
 655.56  32.087  23.705
 656.06  32.204  23.705
 656.56  32.204  23.705
 657.06  32.204  23.674
 657.56  32.321  23.705
 658.06  32.087  23.643
 658.56  32.321  23.674
 659.06  32.204  23.705
 659.56  32.204  23.550
 660.06  32.321  23.705
 660.56  32.204  23.674
 661.06  32.204  23.705
 661.56  32.204  23.674
 662.06  32.204  23.705
 662.56  32.204  23.674
 663.06  32.321  23.674
 663.56  32.204  23.674
 664.06  32.321  23.674
 664.56  32.321  23.705
 665.06  32.321  23.674
 665.56  32.321  23.705
 666.06  32.204  23.674
 666.56  32.321  23.674
 667.06  32.555  23.674
 667.56  32.438  23.674
 668.06  32.438  23.705
 668.56  32.438  23.705
 669.06  32.321  23.735
 669.56  32.438  23.705
 670.06  32.438  23.674
 670.56  32.438  23.674
 671.06  32.204  23.705
 671.56  32.321  23.705
 672.06  32.438  23.705
 672.56  32.438  23.674
 673.06  32.321  23.674
 673.56  32.321  23.705
 674.06  32.555  23.674
 674.56  32.438  23.705
 675.06  32.321  23.674
 675.56  32.204  23.674
 676.06  32.438  23.674
 676.56  32.321  23.643
 677.06  32.438  23.674
 677.56  32.438  23.705
 678.06  32.438  23.705
 678.56  32.555  23.705
 679.06  32.438  23.705
 679.56  32.321  23.705
 680.06  32.555  23.674
 680.56  32.438  23.674
 681.06  32.438  23.674
 681.56  32.204  23.674
 682.06  32.438  23.705
 682.56  32.438  23.674
 683.06  32.321  23.705
 683.56  32.555  23.674
 684.06  32.438  23.705
 684.56  32.438  23.674
 685.06  32.438  23.674
 685.56  32.555  23.674
 686.06  32.555  23.705
 686.56  32.438  23.705
 687.06  32.438  23.705
 687.56  32.555  23.674
 688.06  32.204  23.674
 688.56  32.555  23.674
 689.06  32.672  23.705
 689.56  32.555  23.674
 690.06  32.555  23.705
 690.56  32.555  23.705
 691.06  32.555  23.674
 691.56  32.555  23.674
 692.06  32.438  23.705
 692.56  32.438  23.735
 693.06  32.555  23.705
 693.56  32.555  23.705
 694.06  32.438  23.705
 694.56  32.438  23.674
 695.06  32.555  23.674
 695.56  32.555  23.705
 696.06  32.555  23.674
 696.56  32.672  23.705
 697.06  32.789  23.705
 697.56  32.438  23.705
 698.06  32.672  23.705
 698.56  32.672  23.735
 699.06  32.555  23.705
 699.56  32.555  23.643
 700.06  32.672  23.705
 700.56  32.789  23.643
 701.06  32.672  23.705
 701.56  32.555  23.705
 702.06  32.555  23.735
 702.56  32.672  23.705
 703.06  32.555  23.705
 703.56  32.672  23.643
 704.06  32.672  23.705
 704.56  32.672  23.674
 705.06  32.789  23.705
 705.56  32.789  23.705
 706.06  32.672  23.705
 706.56  32.789  23.735
 707.06  32.789  23.705
 707.56  32.555  23.674
 708.06  32.789  23.705
 708.56  32.789  23.705
 709.06  32.672  23.705
 709.56  32.789  23.674
 710.06  32.906  23.705
 710.56  32.789  23.674
 711.06  32.789  23.705
 711.56  32.789  23.735
 712.06  32.789  23.705
 712.56  32.672  23.705
 713.06  32.555  23.705
 713.56  32.789  23.705
 714.06  32.789  23.705
 714.56  32.789  23.674
 715.06  32.672  23.705
 715.56  32.789  23.735
 716.06  32.789  23.643
 716.56  32.906  23.674
 717.06  32.906  23.674
 717.56  32.789  23.705
 718.06  33.022  23.705
 718.56  32.789  23.705
 719.06  32.906  23.674
 719.56  32.906  23.705
 720.06  32.906  23.705
 720.56  32.906  23.705
 721.06  32.906  23.735
 721.56  32.789  23.705
 722.06  32.789  23.705
 722.56  33.022  23.705
 723.06  33.022  23.705
 723.56  32.789  23.705
 724.06  32.906  23.705
 724.56  32.906  23.674
 725.06  32.906  23.705
 725.56  32.906  23.674
 726.06  32.906  23.674
 726.57  32.906  23.643
 727.07  32.906  23.735
 727.57  32.906  23.705
 728.07  32.906  23.643
 728.57  32.789  23.705
 729.07  32.906  23.735
 729.57  32.906  23.705
 730.07  32.906  23.705
 730.57  32.906  23.674
 731.07  32.906  23.735
 731.57  32.906  23.705
 732.07  32.906  23.705
 732.57  32.906  23.705
 733.07  33.022  23.705
 733.57  32.906  23.705
 734.07  33.022  23.674
 734.57  33.022  23.705
 735.07  33.022  23.705
 735.57  32.906  23.705
 736.07  32.906  23.705
 736.57  32.906  23.705
 737.07  33.022  23.705
 737.57  32.906  23.705
 738.07  33.022  23.674
 738.57  33.139  23.705
 739.07  33.022  23.705
 739.57  33.022  23.705
 740.07  33.022  23.705
 740.57  33.022  23.674
 741.07  33.139  23.705
 741.57  32.906  23.674
 742.07  32.906  23.705
 742.57  33.022  23.705
 743.07  33.022  23.705
 743.57  33.139  23.705
 744.07  33.022  23.705
 744.57  33.139  23.735
 745.07  33.022  23.674
 745.57  33.022  23.705
 746.07  33.022  23.705
 746.57  33.139  23.705
 747.07  33.022  23.705
 747.57  33.139  23.674
 748.07  33.139  23.705
 748.57  33.022  23.674
 749.07  33.022  23.735
 749.57  33.139  23.705
 750.07  33.022  23.705
 750.57  32.906  23.705
 751.07  33.022  23.735
 751.57  33.139  23.705
 752.07  33.139  23.735
 752.57  33.139  23.705
 753.07  33.373  23.705
 753.57  33.022  23.705
 754.07  33.139  23.674
 754.57  33.022  23.674
 755.07  33.022  23.705
 755.57  33.139  23.705
 756.07  33.022  23.705
 756.57  33.256  23.705
 757.07  33.139  23.705
 757.57  33.139  23.705
 758.07  33.139  23.674
 758.57  33.139  23.705
 759.07  33.139  23.735
 759.57  33.256  23.705
 760.07  33.139  23.705
 760.57  33.256  23.705
 761.07  33.139  23.674
 761.57  33.256  23.705
 762.07  33.256  23.674
 762.57  33.139  23.705
 763.07  33.256  23.674
 763.57  33.256  23.735
 764.07  33.256  23.705
 764.57  33.256  23.735
 765.07  33.139  23.674
 765.57  33.139  23.705
 766.07  33.139  23.735
 766.57  33.139  23.705
 767.07  33.022  23.705
 767.57  33.256  23.705
 768.07  33.022  23.674
 768.57  33.256  23.674
 769.07  33.373  23.735
 769.57  33.139  23.705
 770.07  33.022  23.674
 770.57  33.490  23.705
 771.07  33.256  23.674
 771.57  33.139  23.705
 772.07  33.139  23.705
 772.57  33.373  23.705
 773.07  33.256  23.705
 773.57  33.256  23.705
 774.07  33.256  23.705
 774.57  33.256  23.705
 775.07  33.373  23.674
 775.57  33.373  23.674
 776.07  33.256  23.674
 776.57  33.139  23.735
 777.07  33.373  23.674
 777.57  33.373  23.674
 778.07  33.373  23.705
 778.57  33.373  23.705
 779.07  33.256  23.735
 779.57  33.373  23.705
 780.07  33.139  23.766
 780.57  33.373  23.674
 781.07  33.373  23.735
 781.57  33.373  23.735
 782.07  33.490  23.705
 782.57  33.490  23.705
 783.07  33.490  23.674
 783.57  33.373  23.643
 784.07  33.490  23.735
 784.57  33.373  23.705
 785.07  33.373  23.705
 785.57  33.373  23.674
 786.07  33.373  23.705
 786.57  33.373  23.705
 787.07  33.490  23.705
 787.57  33.490  23.705
 788.07  33.490  23.735
 788.57  33.256  23.705
 789.07  33.373  23.674
 789.57  33.490  23.705
 790.07  33.373  23.705
 790.57  33.373  23.705
 791.07  33.490  23.705
 791.57  33.490  23.674
 792.07  33.490  23.674
 792.57  33.607  23.705
 793.07  33.490  23.735
 793.57  33.607  23.705
 794.07  33.490  23.705
 794.57  33.490  23.705
 795.07  33.490  23.705
 795.57  33.490  23.705
 796.07  33.490  23.705
 796.57  33.607  23.705
 797.07  33.607  23.705
 797.57  33.490  23.674
 798.07  33.607  23.705
 798.57  33.490  23.735
 799.07  33.607  23.705
 799.57  33.724  23.674
 800.07  33.490  23.735
 800.57  33.607  23.705
 801.07  33.607  23.705
 801.57  33.607  23.735
 802.07  33.607  23.735
 802.57  33.490  23.705
 803.07  33.607  23.735
 803.57  33.607  23.735
 804.07  33.607  23.705
 804.57  33.607  23.735
 805.07  33.607  23.735
 805.57  33.490  23.705
 806.07  33.490  23.705
 806.57  33.607  23.705
 807.07  33.607  23.705
 807.57  33.607  23.705
 808.07  33.724  23.705
 808.57  33.607  23.705
 809.07  33.607  23.674
 809.57  33.607  23.705
 810.07  33.607  23.735
 810.57  33.607  23.735
 811.07  33.607  23.705
 811.57  33.490  23.705
 812.07  33.724  23.705
 812.57  33.724  23.735
 813.07  33.724  23.705
 813.57  33.724  23.705
 814.07  33.490  23.705
 814.57  33.724  23.705
 815.07  33.724  23.735
 815.57  33.607  23.735
 816.07  33.607  23.705
 816.57  33.724  23.735
 817.07  33.724  23.735
 817.57  33.607  23.705
 818.07  33.841  23.705
 818.57  33.724  23.705
 819.07  33.607  23.674
 819.57  33.607  23.674
 820.07  33.607  23.705
 820.57  33.724  23.705
 821.07  33.724  23.705
 821.57  33.724  23.705
 822.07  33.607  23.705
 822.57  33.607  23.766
 823.07  33.607  23.735
 823.57  33.724  23.735
 824.07  33.607  23.705
 824.57  33.841  23.705
 825.07  33.724  23.705
 825.57  33.841  23.766
 826.07  33.841  23.705
 826.57  33.607  23.735
 827.07  33.607  23.766
 827.57  33.607  23.705
 828.07  33.841  23.705
 828.57  33.841  23.735
 829.07  33.724  23.705
 829.57  33.841  23.735
 830.07  33.841  23.705
 830.57  33.724  23.766
 831.07  33.841  23.705
 831.57  33.724  23.674
 832.07  33.724  23.705
 832.57  33.957  23.735
 833.07  33.841  23.705
 833.57  33.841  23.766
 834.07  33.724  23.705
 834.57  33.841  23.674
 835.07  33.841  23.735
 835.57  33.841  23.705
 836.07  33.724  23.735
 836.57  33.724  23.674
 837.07  33.841  23.705
 837.57  33.957  23.705
 838.07  33.841  23.735
 838.57  33.841  23.735
 839.07  34.074  23.643
 839.58  33.841  23.705
 840.08  33.957  23.705
 840.58  33.957  23.735
 841.08  33.841  23.735
 841.58  33.841  23.766
 842.08  33.724  23.705
 842.58  33.841  23.705
 843.08  33.841  23.705
 843.58  33.724  23.735
 844.08  33.841  23.705
 844.58  33.957  23.705
 845.08  33.957  23.674
 845.58  33.957  23.735
 846.08  33.841  23.735
 846.58  33.957  23.705
 847.08  33.841  23.705
 847.58  33.841  23.735
 848.08  33.841  23.735
 848.58  34.074  23.735
 849.08  33.841  23.705
 849.58  33.841  23.705
 850.08  34.074  23.674
 850.58  33.957  23.735
 851.08  33.841  23.705
 851.58  33.841  23.735
 852.08  33.957  23.705
 852.58  33.957  23.705
 853.08  33.841  23.705
 853.58  33.841  23.705
 854.08  33.957  23.735
 854.58  33.724  23.705
 855.08  33.957  23.705
 855.58  33.724  23.705
 856.08  33.841  23.735
 856.58  33.957  23.705
 857.08  33.957  23.705
 857.58  33.841  23.674
 858.08  33.957  23.705
 858.58  33.957  23.705
 859.08  33.841  23.735
 859.58  33.957  23.735
 860.08  33.957  23.735
 860.58  33.957  23.705
 861.08  33.841  23.705
 861.58  33.957  23.735
 862.08  33.957  23.735
 862.58  33.957  23.705
 863.08  33.957  23.735
 863.58  33.841  23.735
 864.08  33.957  23.705
 864.58  33.957  23.674
 865.08  33.841  23.705
 865.58  33.957  23.705
 866.08  33.957  23.705
 866.58  33.957  23.735
 867.08  34.074  23.705
 867.58  34.074  23.735
 868.08  33.957  23.735
 868.58  33.957  23.735
 869.08  33.957  23.705
 869.58  34.074  23.705
 870.08  33.957  23.705
 870.58  33.724  23.674
 871.08  34.191  23.705
 871.58  33.957  23.705
 872.08  33.957  23.735
 872.58  33.957  23.735
 873.08  34.308  23.705
 873.58  34.074  23.797
 874.08  34.074  23.705
 874.58  33.957  23.735
 875.08  34.074  23.735
 875.58  34.074  23.735
 876.08  34.191  23.705
 876.58  33.957  23.705
 877.08  34.074  23.735
 877.58  34.074  23.766
 878.08  34.074  23.705
 878.58  34.074  23.735
 879.08  34.074  23.705
 879.58  33.957  23.735
 880.08  34.074  23.705
 880.58  33.957  23.705
 881.08  34.191  23.705
 881.58  33.957  23.705
 882.08  34.074  23.705
 882.58  34.074  23.735
 883.08  34.191  23.705
 883.58  34.074  23.766
 884.08  34.191  23.705
 884.58  34.074  23.766
 885.08  34.074  23.705
 885.58  34.074  23.705
 886.08  34.308  23.735
 886.58  34.191  23.735
 887.08  34.191  23.705
 887.58  34.074  23.766
 888.08  34.191  23.735
 888.58  34.074  23.735
 889.08  34.191  23.705
 889.58  34.191  23.735
 890.08  34.074  23.705
 890.58  34.191  23.705
 891.08  33.957  23.705
 891.58  33.957  23.674
 892.08  33.957  23.735
 892.58  34.191  23.735
 893.08  34.191  23.735
 893.58  34.191  23.735
 894.08  34.191  23.705
 894.58  34.074  23.705
 895.08  34.191  23.735
 895.58  34.308  23.766
 896.08  34.191  23.735
 896.58  34.425  23.705
 897.08  34.308  23.735
 897.58  34.191  23.705
 898.08  34.191  23.735
 898.58  34.191  23.735
 899.08  34.308  23.766
 899.58  34.074  23.735
 900.08  34.191  23.705
 900.58  34.308  23.735
 901.08  34.308  23.735
 901.58  34.425  23.705
 902.08  34.191  23.735
 902.58  34.191  23.735
 903.08  34.308  23.735
 903.58  34.191  23.766
 904.08  34.542  23.735
 904.58  34.191  23.705
 905.08  34.308  23.766
 905.58  34.308  23.735
 906.08  34.191  23.705
 906.58  34.308  23.735
 907.08  34.191  23.705
 907.58  34.425  23.735
 908.08  34.308  23.735
 908.58  34.425  23.735
 909.08  34.425  23.705
 909.58  34.308  23.735
 910.08  34.074  23.735
 910.58  34.308  23.735
 911.08  34.425  23.735
 911.58  34.191  23.735
 912.08  34.425  23.735
 912.58  34.308  23.735
 913.08  34.308  23.735
 913.58  34.425  23.735
 914.08  34.191  23.735
 914.58  34.425  23.705
 915.08  34.308  23.735
 915.58  34.308  23.705
 916.08  34.308  23.735
 916.58  34.425  23.735
 917.08  34.308  23.766
 917.58  34.425  23.735
 918.08  34.308  23.735
 918.58  34.308  23.735
 919.08  34.308  23.735
 919.58  34.308  23.735
 920.08  34.308  23.766
 920.58  34.308  23.735
 921.08  34.308  23.705
 921.58  34.308  23.735
 922.08  34.308  23.735
 922.58  34.425  23.735
 923.08  34.542  23.735
 923.58  34.308  23.735
 924.08  34.659  23.735
 924.58  34.308  23.735
 925.08  34.542  23.735
 925.58  34.425  23.735
 926.08  34.425  23.766
 926.58  34.425  23.705
 927.08  34.425  23.705
 927.58  34.425  23.705
 928.08  34.425  23.735
 928.58  34.542  23.766
 929.08  34.425  23.735
 929.58  34.425  23.735
 930.08  34.308  23.766
 930.58  34.425  23.705
 931.08  34.425  23.735
 931.58  34.308  23.705
 932.08  34.425  23.705
 932.58  34.425  23.735
 933.08  34.425  23.705
 933.58  34.542  23.735
 934.08  34.425  23.735
 934.58  34.425  23.797
 935.08  34.542  23.766
 935.58  34.542  23.735
 936.08  34.425  23.735
 936.58  34.425  23.735
 937.08  34.425  23.735
 937.58  34.425  23.735
 938.08  34.425  23.735
 938.58  34.542  23.735
 939.08  34.425  23.735
 939.58  34.308  23.735
 940.08  34.425  23.735
 940.58  34.542  23.766
 941.08  34.542  23.735
 941.58  34.425  23.766
 942.08  34.425  23.735
 942.58  34.542  23.766
 943.08  34.425  23.705
 943.58  34.542  23.766
 944.08  34.425  23.766
 944.58  34.425  23.735
 945.08  34.659  23.766
 945.58  34.542  23.735
 946.08  34.308  23.705
 946.58  34.542  23.766
 947.08  34.659  23.766
 947.58  34.425  23.735
 948.08  34.425  23.735
 948.58  34.659  23.674
 949.08  34.542  23.735
 949.58  34.542  23.735
 950.08  34.425  23.705
 950.58  34.659  23.735
 951.08  34.542  23.735
 951.58  34.542  23.643
 952.08  34.542  23.735
 952.58  34.542  23.766
 953.09  34.542  23.735
 953.59  34.425  23.674
 954.09  34.542  23.735
 954.59  34.542  23.735
 955.09  34.425  23.735
 955.59  34.659  23.735
 956.09  34.659  23.735
 956.59  34.659  23.766
 957.09  34.659  23.766
 957.59  34.659  23.766
 958.09  34.542  23.735
 958.59  34.425  23.735
 959.09  34.542  23.705
 959.59  34.659  23.735
 960.09  34.542  23.735
 960.59  34.659  23.705
 961.09  34.659  23.735
 961.59  34.776  23.735
 962.09  34.542  23.735
 962.59  34.659  23.735
 963.09  34.425  23.735
 963.59  34.542  23.705
 964.09  34.542  23.766
 964.59  34.659  23.735
 965.09  34.892  23.735
 965.59  34.659  23.735
 966.09  34.659  23.766
 966.59  34.659  23.766
 967.09  34.659  23.735
 967.59  34.425  23.766
 968.09  34.659  23.766
 968.59  34.659  23.766
 969.09  34.659  23.735
 969.59  34.542  23.735
 970.09  34.659  23.735
 970.59  34.776  23.766
 971.09  34.659  23.766
 971.59  34.776  23.735
 972.09  34.659  23.797
 972.59  34.659  23.735
 973.09  35.133  23.766
 973.59  34.776  23.735
 974.09  34.659  23.766
 974.59  34.776  23.735
 975.09  34.776  23.766
 975.59  34.542  23.735
 976.09  34.659  23.766
 976.59  34.776  23.735
 977.09  34.776  23.735
 977.59  34.659  23.766
 978.09  34.659  23.766
 978.59  34.776  23.735
 979.09  34.892  23.735
 979.59  34.776  23.766
 980.09  34.659  23.735
 980.59  34.659  23.766
 981.09  34.776  23.735
 981.59  34.659  23.735
 982.09  34.892  23.735
 982.59  34.892  23.705
 983.09  34.542  23.735
 983.59  34.776  23.735
 984.09  34.892  23.766
 984.59  34.776  23.797
 985.09  34.776  23.735
 985.59  34.892  23.766
 986.09  35.005  23.766
 986.59  34.776  23.735
 987.09  34.659  23.735
 987.59  34.776  23.766
 988.09  34.892  23.705
 988.59  34.892  23.735
 989.09  34.776  23.735
 989.59  34.659  23.766
 990.09  34.776  23.766
 990.59  34.776  23.735
 991.09  34.776  23.735
 991.59  34.659  23.735
 992.09  34.776  23.735
 992.59  34.776  23.735
 993.09  34.776  23.735
 993.59  34.892  23.766
 994.09  34.892  23.766
 994.59  35.133  23.797
 995.09  34.659  23.735
 995.59  34.776  23.735
 996.09  34.542  23.766
 996.59  34.776  23.735
 997.09  34.892  23.766
 997.59  34.776  23.735
 998.09  34.892  23.735
 998.59  34.776  23.735
 999.09  34.776  23.766
 999.59  34.776  23.766
1000.09  35.005  23.735
1000.59  34.892  23.797
1001.09  34.776  23.766
1001.59  34.892  23.705
1002.09  34.776  23.735
1002.59  34.892  23.766
1003.09  34.892  23.766
1003.59  34.892  23.766
1004.09  34.892  23.735
1004.59  34.892  23.766
1005.09  34.892  23.766
1005.59  34.776  23.735
1006.09  34.776  23.766
1006.59  34.892  23.735
1007.09  34.892  23.766
1007.59  34.892  23.766
1008.09  34.776  23.766
1008.59  34.776  23.735
1009.09  34.659  23.705
1009.59  34.776  23.735
1010.09  34.892  23.766
1010.59  34.892  23.735
1011.09  35.005  23.735
1011.59  34.776  23.735
1012.09  34.892  23.735
1012.59  35.069  23.766
1013.09  34.892  23.735
1013.59  34.892  23.766
1014.09  34.892  23.766
1014.59  35.005  23.735
1015.09  34.892  23.766
1015.59  34.776  23.766
1016.09  35.005  23.766
1016.59  35.069  23.735
1017.09  35.005  23.766
1017.59  35.069  23.766
1018.09  34.892  23.735
1018.59  35.005  23.735
1019.09  34.892  23.735
1019.59  34.776  23.766
1020.09  34.892  23.735
1020.59  34.892  23.735
1021.09  35.005  23.766
1021.59  34.892  23.766
1022.09  34.892  23.735
1022.59  34.892  23.735
1023.09  35.005  23.766
1023.59  35.005  23.735
1024.09  35.005  23.766
1024.59  34.892  23.735
1025.09  35.005  23.766
1025.59  35.005  23.766
1026.09  34.892  23.735
1026.59  35.005  23.735
1027.09  35.005  23.735
1027.59  35.005  23.735
1028.09  35.005  23.766
1028.59  35.005  23.735
1029.09  35.005  23.766
1029.59  35.005  23.766
1030.09  34.892  23.735
1030.59  35.005  23.766
1031.09  35.069  23.735
1031.59  35.069  23.735
1032.09  35.005  23.766
1032.59  34.892  23.735
1033.09  35.069  23.766
1033.59  34.776  23.705
1034.09  35.005  23.705
1034.59  35.069  23.735
1035.09  35.005  23.735
1035.59  35.069  23.766
1036.09  35.005  23.766
1036.59  34.776  23.766
1037.09  35.005  23.766
1037.59  35.005  23.766
1038.09  34.892  23.766
1038.59  35.005  23.766
1039.09  35.005  23.735
1039.59  35.005  23.766
1040.09  35.005  23.766
1040.59  34.892  23.766
1041.09  35.133  23.766
1041.59  35.069  23.797
1042.09  35.069  23.797
1042.59  35.069  23.766
1043.09  35.005  23.735
1043.59  35.069  23.766
1044.09  34.892  23.735
1044.59  35.069  23.797
1045.09  35.133  23.766
1045.59  35.069  23.766
1046.09  35.133  23.735
1046.59  35.133  23.766
1047.09  35.069  23.766
1047.59  35.005  23.735
1048.09  35.069  23.766
1048.59  35.069  23.828
1049.09  35.069  23.735
1049.59  35.069  23.766
1050.09  35.069  23.766
1050.59  35.005  23.797
1051.09  35.005  23.766
1051.59  35.197  23.766
1052.09  35.133  23.766
1052.59  35.133  23.766
1053.09  35.069  23.766
1053.59  35.069  23.766
1054.09  35.069  23.735
1054.59  35.133  23.797
1055.09  35.069  23.766
1055.59  35.005  23.766
1056.09  35.133  23.705
1056.59  35.133  23.828
1057.09  35.133  23.766
1057.59  35.069  23.766
1058.09  35.069  23.766
1058.59  35.133  23.766
1059.09  35.133  23.735
1059.59  35.133  23.735
1060.09  35.069  23.766
1060.59  35.069  23.735
1061.09  35.069  23.735
1061.59  35.069  23.797
1062.09  35.005  23.766
1062.59  35.069  23.705
1063.09  35.069  23.766
1063.59  35.133  23.735
1064.09  35.133  23.735
1064.59  35.005  23.735
1065.09  35.069  23.766
1065.59  35.133  23.735
1066.10  34.892  23.735
1066.60  35.197  23.766
1067.10  35.197  23.766
1067.60  35.133  23.766
1068.10  35.069  23.766
1068.60  35.069  23.797
1069.10  35.005  23.797
1069.60  35.133  23.766
1070.10  35.069  23.797
1070.60  35.197  23.766
1071.10  35.133  23.766
1071.60  35.133  23.735
1072.10  35.197  23.766
1072.60  35.069  23.766
1073.10  35.197  23.766
1073.60  35.005  23.766
1074.10  35.133  23.766
1074.60  35.197  23.766
1075.10  35.133  23.766
1075.60  35.197  23.766
1076.10  35.133  23.766
1076.60  35.069  23.766
1077.10  35.197  23.766
1077.60  35.197  23.766
1078.10  35.133  23.735
1078.60  35.069  23.766
1079.10  35.133  23.766
1079.60  35.133  23.766
1080.10  35.133  23.828
1080.60  35.133  23.766
1081.10  35.133  23.735
1081.60  35.261  23.766
1082.10  35.133  23.766
1082.60  35.197  23.766
1083.10  35.133  23.766
1083.60  35.133  23.766
1084.10  35.133  23.766
1084.60  35.133  23.766
1085.10  35.133  23.766
1085.60  35.133  23.766
1086.10  35.069  23.766
1086.60  35.069  23.766
1087.10  35.197  23.766
1087.60  35.197  23.797
1088.10  35.133  23.797
1088.60  35.389  23.766
1089.10  35.325  23.735
1089.60  35.133  23.797
1090.10  35.197  23.797
1090.60  35.197  23.766
1091.10  35.197  23.797
1091.60  35.197  23.735
1092.10  35.069  23.797
1092.60  35.197  23.766
1093.10  35.197  23.766
1093.60  35.197  23.766
1094.10  35.197  23.766
1094.60  35.197  23.766
1095.10  35.197  23.766
1095.60  35.261  23.766
1096.10  35.133  23.766
1096.60  35.197  23.797
1097.10  35.133  23.766
1097.60  35.197  23.766
1098.10  35.133  23.766
1098.60  35.197  23.766
1099.10  35.197  23.735
1099.60  35.261  23.766
1100.10  35.197  23.766
1100.60  35.133  23.735
1101.10  35.261  23.766
1101.60  35.197  23.735
1102.10  35.197  23.766
1102.60  35.197  23.735
1103.10  35.261  23.828
1103.60  35.197  23.766
1104.10  35.197  23.766
1104.60  35.197  23.797
1105.10  35.197  23.766
1105.60  35.197  23.766
1106.10  35.197  23.797
1106.60  35.261  23.797
1107.10  35.197  23.797
1107.60  34.308  23.797
1108.10  35.197  23.766
1108.60  35.197  23.766
1109.10  35.197  23.766
1109.60  35.197  23.766
1110.10  35.261  23.797
1110.60  35.133  23.766
1111.10  35.197  23.735
1111.60  35.197  23.797
1112.10  35.261  23.735
1112.60  35.197  23.766
1113.10  35.261  23.735
1113.60  35.197  23.735
1114.10  35.261  23.766
1114.60  35.261  23.766
1115.10  35.261  23.766
1115.60  35.261  23.766
1116.10  35.261  23.766
1116.60  35.261  23.735
1117.10  35.197  23.797
1117.60  35.261  23.766
1118.10  35.261  23.766
1118.60  35.261  23.766
1119.10  35.325  23.766
1119.60  35.325  23.766
1120.10  35.197  23.766
1120.60  35.261  23.797
1121.10  35.325  23.766
1121.60  35.261  23.735
1122.10  35.197  23.735
1122.60  35.261  23.766
1123.10  35.261  23.766
1123.60  35.261  23.766
1124.10  35.325  23.797
1124.60  35.261  23.735
1125.10  35.325  23.797
1125.60  35.197  23.766
1126.10  35.261  23.735
1126.60  35.197  23.766
1127.10  35.197  23.766
1127.60  35.261  23.766
1128.10  35.325  23.797
1128.60  35.197  23.766
1129.10  35.197  23.766
1129.60  35.389  23.766
1130.10  35.261  23.797
1130.60  35.197  23.797
1131.10  35.325  23.797
1131.60  35.325  23.797
1132.10  35.325  23.797
1132.60  35.261  23.766
1133.10  35.261  23.766
1133.60  35.261  23.766
1134.10  35.261  23.766
1134.60  35.261  23.766
1135.10  35.261  23.828
1135.60  35.261  23.766
1136.10  35.325  23.797
1136.60  35.261  23.735
1137.10  35.261  23.766
1137.60  35.261  23.735
1138.10  35.261  23.766
1138.60  35.325  23.766
1139.10  35.261  23.766
1139.60  35.325  23.766
1140.10  35.261  23.766
1140.60  35.389  23.766
1141.10  35.261  23.766
1141.60  35.261  23.766
1142.10  35.325  23.766
1142.60  35.261  23.735
1143.10  35.261  23.797
1143.60  35.261  23.797
1144.10  35.389  23.766
1144.60  35.261  23.766
1145.10  35.261  23.797
1145.60  35.389  23.766
1146.10  35.389  23.766
1146.60  35.197  23.797
1147.10  35.325  23.766
1147.60  35.325  23.735
1148.10  35.325  23.797
1148.60  35.325  23.766
1149.10  35.325  23.797
1149.60  35.261  23.766
1150.10  35.261  23.766
1150.60  35.325  23.797
1151.10  35.261  23.766
1151.60  35.325  23.766
1152.10  35.325  23.766
1152.60  35.261  23.766
1153.10  35.261  23.797
1153.60  35.261  23.766
1154.10  35.325  23.828
1154.60  35.325  23.766
1155.10  35.325  23.797
1155.60  35.261  23.735
1156.10  35.325  23.735
1156.60  35.389  23.766
1157.10  35.325  23.766
1157.60  35.261  23.766
1158.10  35.261  23.797
1158.60  35.325  23.766
1159.10  35.261  23.797
1159.60  35.325  23.797
1160.10  35.325  23.797
1160.60  35.389  23.766
1161.10  35.389  23.797
1161.60  35.453  23.766
1162.10  35.389  23.766
1162.60  35.389  23.766
1163.10  35.261  23.766
1163.60  35.389  23.766
1164.10  35.389  23.766
1164.60  35.389  23.766
1165.10  35.389  23.797
1165.60  35.453  23.766
1166.10  35.261  23.766
1166.60  35.325  23.828
1167.10  35.389  23.797
1167.60  35.389  23.766
1168.10  35.389  23.797
1168.60  35.389  23.735
1169.10  35.325  23.766
1169.60  35.517  23.797
1170.10  35.325  23.828
1170.60  35.325  23.766
1171.10  35.389  23.797
1171.60  35.389  23.797
1172.10  35.325  23.797
1172.60  35.389  23.766
1173.10  35.389  23.797
1173.60  35.261  23.735
1174.10  35.325  23.766
1174.60  35.389  23.797
1175.10  35.325  23.797
1175.60  35.325  23.797
1176.10  35.453  23.828
1176.60  35.389  23.766
1177.10  35.325  23.766
1177.60  35.389  23.766
1178.10  35.133  23.797
1178.60  35.197  23.766
1179.11  35.261  23.797
1179.61  35.325  23.828
1180.11  35.389  23.797
1180.61  35.453  23.797
1181.11  35.389  23.797
1181.61  35.389  23.766
1182.11  35.389  23.766
1182.61  35.389  23.735
1183.11  35.325  23.766
1183.61  35.389  23.828
1184.11  35.389  23.766
1184.61  35.389  23.797
1185.11  35.453  23.766
1185.61  35.389  23.797
1186.11  35.389  23.766
1186.61  35.389  23.766
1187.11  35.453  23.766
1187.61  35.389  23.828
1188.11  35.453  23.797
1188.61  35.389  23.797
1189.11  35.325  23.797
1189.61  35.389  23.797
1190.11  35.389  23.766
1190.61  35.389  23.797
1191.11  35.389  23.828
1191.61  35.389  23.766
1192.11  35.389  23.859
1192.61  35.389  23.797
1193.11  35.389  23.797
1193.61  35.389  23.797
1194.11  35.389  23.766
1194.61  35.389  23.797
1195.11  35.517  23.797
1195.61  35.453  23.797
1196.11  35.453  23.797
1196.61  35.517  23.797
1197.11  35.453  23.766
1197.61  35.389  23.797
1198.11  35.389  23.797
1198.61  35.389  23.766
1199.11  35.453  23.828
1199.61  35.453  23.766
1200.11  35.453  23.766
1200.61  35.389  23.766
1201.11  35.389  23.797
1201.61  35.453  23.797
1202.11  35.517  23.797
1202.61  35.453  23.828
1203.11  35.453  23.797
1203.61  35.453  23.797
1204.11  35.389  23.828
1204.61  35.453  23.797
1205.11  35.453  23.766
1205.61  35.453  23.797
1206.11  35.389  23.797
1206.61  35.389  23.766
1207.11  35.453  23.766
1207.61  35.453  23.797
1208.11  35.453  23.735
1208.61  35.453  23.766
1209.11  35.453  23.797
1209.61  35.453  23.797
1210.11  35.453  23.766
1210.61  35.453  23.797
1211.11  35.517  23.766
1211.61  35.517  23.797
1212.11  35.453  23.797
1212.61  35.581  23.766
1213.11  35.453  23.859
1213.61  35.389  23.797
1214.11  35.453  23.797
1214.61  35.453  23.797
1215.11  35.453  23.797
1215.61  35.453  23.797
1216.11  35.453  23.797
1216.61  35.389  23.797
1217.11  35.453  23.766
1217.61  35.517  23.828
1218.11  35.517  23.828
1218.61  35.517  23.766
1219.11  35.389  23.766
1219.61  35.453  23.797
1220.11  35.517  23.766
1220.61  35.453  23.797
1221.11  35.453  23.797
1221.61  35.453  23.766
1222.11  35.517  23.797
1222.61  35.453  23.828
1223.11  35.325  23.797
1223.61  35.453  23.797
1224.11  35.517  23.766
1224.61  35.517  23.797
1225.11  35.517  23.828
1225.61  35.517  23.797
1226.11  35.453  23.797
1226.61  35.581  23.797
1227.11  35.517  23.828
1227.61  35.389  23.797
1228.11  35.389  23.797
1228.61  35.581  23.797
1229.11  35.453  23.797
1229.61  35.517  23.766
1230.11  35.517  23.797
1230.61  35.517  23.797
1231.11  35.517  23.797
1231.61  35.453  23.797
1232.11  35.453  23.828
1232.61  35.517  23.797
1233.11  35.581  23.797
1233.61  35.517  23.797
1234.11  35.517  23.797
1234.61  35.517  23.797
1235.11  35.517  23.797
1235.61  35.517  23.797
1236.11  35.453  23.797
1236.61  35.517  23.797
1237.11  35.581  23.797
1237.61  35.517  23.797
1238.11  35.517  23.766
1238.61  35.581  23.766
1239.11  35.517  23.797
1239.61  35.581  23.797
1240.11  35.453  23.797
1240.61  35.517  23.828
1241.11  35.645  23.828
1241.61  35.517  23.797
1242.11  35.581  23.828
1242.61  35.517  23.797
1243.11  35.517  23.828
1243.61  35.581  23.828
1244.11  35.517  23.766
1244.61  35.517  23.797
1245.11  35.581  23.797
1245.61  35.581  23.797
1246.11  35.517  23.828
1246.61  35.517  23.797
1247.11  35.517  23.828
1247.61  35.453  23.797
1248.11  35.581  23.828
1248.61  35.517  23.797
1249.11  35.517  23.828
1249.61  35.517  23.766
1250.11  35.453  23.828
1250.61  35.581  23.797
1251.11  35.453  23.766
1251.61  35.517  23.797
1252.11  35.581  23.766
1252.61  35.517  23.828
1253.11  35.581  23.797
1253.61  35.517  23.797
1254.11  35.581  23.797
1254.61  35.517  23.797
1255.11  35.581  23.859
1255.61  35.581  23.797
1256.11  35.581  23.766
1256.61  35.581  23.797
1257.11  35.517  23.797
1257.61  35.581  23.735
1258.11  35.581  23.766
1258.61  35.517  23.797
1259.11  35.517  23.828
1259.61  35.581  23.797
1260.11  35.581  23.797
1260.61  35.581  23.797
1261.11  35.581  23.766
1261.61  35.517  23.828
1262.11  35.581  23.766
1262.61  35.453  23.766
1263.11  35.517  23.766
1263.61  35.453  23.766
1264.11  35.581  23.797
1264.61  35.517  23.797
1265.11  35.517  23.828
1265.61  35.581  23.797
1266.11  35.517  23.797
1266.61  35.581  23.766
1267.11  35.645  23.828
1267.61  35.581  23.828
1268.11  35.517  23.797
1268.61  35.453  23.828
1269.11  35.645  23.828
1269.61  35.517  23.797
1270.11  35.645  23.797
1270.61  35.645  23.797
1271.11  35.581  23.797
1271.61  35.581  23.828
1272.11  35.517  23.766
1272.61  35.581  23.797
1273.11  35.581  23.797
1273.61  35.645  23.797
1274.11  35.645  23.766
1274.61  35.581  23.797
1275.11  35.581  23.797
1275.61  35.581  23.797
1276.11  35.581  23.797
1276.61  35.581  23.828
1277.11  35.517  23.797
1277.61  35.581  23.797
1278.11  35.645  23.828
1278.61  35.517  23.797
1279.11  35.645  23.859
1279.61  35.581  23.889
1280.11  35.581  23.797
1280.61  35.709  23.766
1281.11  35.581  23.797
1281.61  35.581  23.766
1282.11  35.709  23.797
1282.61  35.645  23.828
1283.11  35.581  23.797
1283.61  35.517  23.797
1284.11  35.581  23.797
1284.61  35.581  23.828
1285.11  35.645  23.797
1285.61  35.645  23.828
1286.11  35.645  23.828
1286.61  35.645  23.797
1287.11  35.645  23.828
1287.61  35.645  23.797
1288.11  35.645  23.828
1288.61  35.645  23.797
1289.11  35.645  23.797
1289.61  35.645  23.797
1290.11  35.709  23.797
1290.61  35.645  23.797
1291.11  35.645  23.797
1291.61  35.709  23.859
1292.12  35.645  23.797
1292.62  35.645  23.828
1293.12  35.645  23.828
1293.62  35.645  23.828
1294.12  35.645  23.859
1294.62  35.709  23.828
1295.12  35.709  23.797
1295.62  35.709  23.797
1296.12  35.645  23.828
1296.62  35.709  23.797
1297.12  35.581  23.828
1297.62  35.709  23.828
1298.12  35.645  23.797
1298.62  35.709  23.797
1299.12  35.709  23.828
1299.62  35.709  23.797
1300.12  35.645  23.828
1300.62  35.709  23.828
1301.12  35.645  23.797
1301.62  35.773  23.766
1302.12  35.581  23.797
1302.62  35.645  23.828
1303.12  35.645  23.828
1303.62  35.709  23.797
1304.12  35.645  23.859
1304.62  35.645  23.766
1305.12  35.645  23.797
1305.62  35.709  23.828
1306.12  35.645  23.828
1306.62  35.709  23.766
1307.12  35.581  23.828
1307.62  35.645  23.797
1308.12  35.709  23.797
1308.62  35.709  23.828
1309.12  35.709  23.797
1309.62  35.645  23.797
1310.12  35.645  23.797
1310.62  35.645  23.797
1311.12  35.709  23.797
1311.62  35.645  23.797
1312.12  35.581  23.828
1312.62  35.709  23.797
1313.12  35.709  23.859
1313.62  35.709  23.797
1314.12  35.645  23.828
1314.62  35.645  23.797
1315.12  35.645  23.766
1315.62  35.709  23.797
1316.12  35.709  23.859
1316.62  35.709  23.797
1317.12  35.709  23.828
1317.62  35.709  23.828
1318.12  35.645  23.797
1318.62  35.773  23.828
1319.12  35.709  23.828
1319.62  35.709  23.828
1320.12  35.709  23.828
1320.62  35.709  23.828
1321.12  35.709  23.828
1321.62  35.709  23.797
1322.12  35.709  23.889
1322.62  35.709  23.828
1323.12  35.709  23.828
1323.62  35.709  23.828
1324.12  35.709  23.828
1324.62  35.709  23.828
1325.12  35.581  23.797
1325.62  35.709  23.828
1326.12  35.709  23.797
1326.62  35.709  23.797
1327.12  35.773  23.828
1327.62  35.645  23.828
1328.12  35.709  23.828
1328.62  35.709  23.828
1329.12  35.709  23.828
1329.62  35.709  23.828
1330.12  35.709  23.828
1330.62  35.709  23.828
1331.12  35.709  23.828
1331.62  35.645  23.828
1332.12  35.645  23.828
1332.62  35.773  23.828
1333.12  35.773  23.828
1333.62  35.709  23.828
1334.12  35.709  23.828
1334.62  35.773  23.828
1335.12  35.709  23.828
1335.62  35.709  23.859
1336.12  35.773  23.797
1336.62  35.709  23.797
1337.12  35.709  23.828
1337.62  35.709  23.828
1338.12  35.709  23.828
1338.62  35.709  23.828
1339.12  35.773  23.828
1339.62  35.645  23.797
1340.12  35.709  23.828
1340.62  35.645  23.859
1341.12  35.709  23.859
1341.62  35.709  23.797
1342.12  35.773  23.828
1342.62  35.709  23.797
1343.12  35.709  23.859
1343.62  35.773  23.797
1344.12  35.709  23.828
1344.62  35.645  23.797
1345.12  35.709  23.797
1345.62  35.773  23.797
1346.12  35.645  23.828
1346.62  35.837  23.828
1347.12  35.709  23.859
1347.62  35.709  23.828
1348.12  35.709  23.828
1348.62  35.709  23.828
1349.12  35.709  23.828
1349.62  35.709  23.797
1350.12  35.773  23.828
1350.62  35.773  23.828
1351.12  35.773  23.828
1351.62  35.773  23.828
1352.12  35.773  23.828
1352.62  35.773  23.797
1353.12  35.773  23.828
1353.62  35.773  23.828
1354.12  35.773  23.797
1354.62  35.837  23.828
1355.12  35.773  23.797
1355.62  35.773  23.828
1356.12  35.709  23.797
1356.62  35.773  23.828
1357.12  35.773  23.797
1357.62  35.709  23.797
1358.12  35.773  23.828
1358.62  35.709  23.828
1359.12  35.709  23.828
1359.62  35.773  23.828
1360.12  35.773  23.828
1360.62  35.709  23.828
1361.12  35.709  23.828
1361.62  35.773  23.766
1362.12  35.773  23.828
1362.62  35.709  23.797
1363.12  35.837  23.828
1363.62  35.773  23.797
1364.12  35.709  23.828
1364.62  35.773  23.828
1365.12  35.773  23.797
1365.62  35.709  23.828
1366.12  35.773  23.828
1366.62  35.773  23.828
1367.12  35.709  23.828
1367.62  35.773  23.797
1368.12  35.773  23.828
1368.62  35.773  23.797
1369.12  35.837  23.828
1369.62  35.773  23.797
1370.12  35.837  23.828
1370.62  35.837  23.828
1371.12  35.709  23.797
1371.62  35.773  23.797
1372.12  35.773  23.828
1372.62  35.773  23.828
1373.12  35.709  23.828
1373.62  35.773  23.828
1374.12  35.837  23.828
1374.62  35.773  23.828
1375.12  35.773  23.889
1375.62  35.837  23.828
1376.12  35.773  23.797
1376.62  35.773  23.828
1377.12  35.773  23.828
1377.62  35.709  23.889
1378.12  35.837  23.828
1378.62  35.773  23.766
1379.12  35.837  23.797
1379.62  35.837  23.797
1380.12  35.837  23.828
1380.62  35.773  23.797
1381.12  35.837  23.828
1381.62  35.773  23.859
1382.12  35.837  23.859
1382.62  35.837  23.828
1383.12  35.773  23.828
1383.62  35.773  23.797
1384.12  35.709  23.797
1384.62  35.837  23.797
1385.12  35.773  23.828
1385.62  35.837  23.828
1386.12  35.837  23.828
1386.62  35.773  23.828
1387.12  35.837  23.859
1387.62  35.837  23.828
1388.12  35.837  23.828
1388.62  35.901  23.828
1389.12  35.773  23.828
1389.62  35.901  23.859
1390.12  35.773  23.859
1390.62  35.837  23.859
1391.12  35.901  23.859
1391.62  35.837  23.859
1392.12  35.837  23.859
1392.62  35.837  23.828
1393.12  35.837  23.828
1393.62  35.773  23.889
1394.12  35.837  23.828
1394.62  35.837  23.797
1395.12  35.837  23.828
1395.62  35.837  23.797
1396.12  35.837  23.797
1396.62  35.837  23.828
1397.12  35.837  23.828
1397.62  35.837  23.828
1398.12  35.837  23.828
1398.62  35.837  23.859
1399.12  35.837  23.828
1399.62  35.709  23.828
1400.12  35.901  23.797
1400.62  35.837  23.889
1401.12  35.581  23.797
1401.62  35.837  23.828
1402.12  35.837  23.828
1402.62  35.837  23.828
1403.12  35.773  23.797
1403.62  35.837  23.828
1404.12  35.773  23.859
1404.62  35.773  23.828
1405.12  35.901  23.859
1405.62  35.901  23.828
1406.12  35.837  23.797
1406.62  35.837  23.828
1407.12  35.837  23.828
1407.62  35.965  23.828
1408.12  35.773  23.859
1408.62  35.901  23.828
1409.12  35.837  23.797
1409.62  35.837  23.859
1410.12  35.837  23.828
1410.62  35.837  23.828
1411.12  35.837  23.797
1411.62  35.965  23.828
1412.12  35.837  23.797
1412.62  35.837  23.828
1413.12  35.837  23.828
1413.62  35.837  23.797
1414.12  35.901  23.828
1414.62  35.837  23.859
1415.12  35.837  23.828
1415.62  35.965  23.889
1416.13  35.837  23.828
1416.63  35.837  23.859
1417.13  35.837  23.859
1417.63  35.901  23.828
1418.13  35.837  23.828
1418.63  35.901  23.828
1419.13  35.901  23.859
1419.63  35.901  23.828
1420.13  35.837  23.859
1420.63  35.837  23.828
1421.13  35.901  23.859
1421.63  35.901  23.828
1422.13  35.837  23.828
1422.63  35.901  23.889
1423.13  35.901  23.859
1423.63  35.773  23.828
1424.13  35.901  23.797
1424.63  35.901  23.828
1425.13  35.965  23.797
1425.63  35.965  23.828
1426.13  35.901  23.828
1426.63  35.965  23.859
1427.13  36.029  23.828
1427.63  35.901  23.797
1428.13  35.965  23.859
1428.63  35.901  23.828
1429.13  35.901  23.828
1429.63  35.965  23.859
1430.13  35.901  23.828
1430.63  35.901  23.828
1431.13  35.901  23.828
1431.63  35.965  23.828
1432.13  35.901  23.828
1432.63  35.901  23.859
1433.13  35.901  23.797
1433.63  35.837  23.828
1434.13  35.901  23.828
1434.63  35.901  23.828
1435.13  35.965  23.828
1435.63  35.901  23.859
1436.13  35.837  23.859
1436.63  35.965  23.828
1437.13  35.901  23.828
1437.63  35.901  23.859
1438.13  35.901  23.828
1438.63  35.837  23.828
1439.13  35.901  23.828
1439.63  36.029  23.859
1440.13  35.965  23.828
1440.63  35.901  23.828
1441.13  35.901  23.859
1441.63  35.837  23.859
1442.13  35.901  23.828
1442.63  35.901  23.797
1443.13  35.901  23.859
1443.63  35.901  23.828
1444.13  35.965  23.828
1444.63  35.901  23.859
1445.13  35.901  23.859
1445.63  35.901  23.859
1446.13  35.901  23.859
1446.63  35.901  23.828
1447.13  35.901  23.828
1447.63  35.965  23.828
1448.13  35.837  23.859
1448.63  35.965  23.828
1449.13  35.901  23.828
1449.63  35.901  23.828
1450.13  35.901  23.859
1450.63  35.965  23.828
1451.13  35.965  23.828
1451.63  35.965  23.828
1452.13  35.901  23.828
1452.63  35.901  23.828
1453.13  35.837  23.828
1453.63  35.901  23.859
1454.13  35.901  23.889
1454.63  35.965  23.889
1455.13  35.901  23.859
1455.63  35.965  23.859
1456.13  35.901  23.859
1456.63  36.029  23.797
1457.13  35.965  23.889
1457.63  35.901  23.828
1458.13  35.965  23.828
1458.63  35.965  23.828
1459.13  35.965  23.828
1459.63  35.965  23.859
1460.13  35.965  23.828
1460.63  35.965  23.859
1461.13  35.901  23.859
1461.63  35.965  23.859
1462.13  35.965  23.797
1462.63  35.965  23.859
1463.13  35.965  23.828
1463.63  35.965  23.859
1464.13  35.901  23.828
1464.63  35.965  23.828
1465.13  35.837  23.797
1465.63  35.901  23.889
1466.13  35.965  23.828
1466.63  35.901  23.859
1467.13  35.965  23.859
1467.63  35.965  23.828
1468.13  35.965  23.859
1468.63  35.901  23.828
1469.13  36.029  23.859
1469.63  35.965  23.859
1470.13  35.901  23.859
1470.63  35.901  23.828
1471.13  36.093  23.859
1471.63  35.965  23.859
1472.13  35.965  23.859
1472.63  35.901  23.859
1473.13  35.965  23.889
1473.63  36.029  23.889
1474.13  35.965  23.889
1474.63  35.965  23.889
1475.13  35.965  23.889
1475.63  36.029  23.859
1476.13  35.965  23.828
1476.63  35.965  23.828
1477.13  36.029  23.828
1477.63  35.901  23.797
1478.13  35.965  23.859
1478.63  35.965  23.859
1479.13  36.029  23.828
1479.63  35.965  23.859
1480.13  35.965  23.889
1480.63  36.029  23.859
1481.13  35.965  23.859
1481.63  36.029  23.828
1482.13  36.093  23.859
1482.63  35.965  23.859
1483.13  35.965  23.859
1483.63  36.093  23.859
1484.13  36.029  23.889
1484.63  36.029  23.859
1485.13  36.029  23.859
1485.63  36.029  23.859
1486.13  36.029  23.889
1486.63  35.965  23.859
1487.13  36.029  23.889
1487.63  36.029  23.859
1488.13  36.029  23.859
1488.63  36.029  23.828
1489.13  35.965  23.889
1489.63  36.029  23.859
1490.13  35.965  23.859
1490.63  36.029  23.859
1491.13  36.029  23.859
1491.63  36.029  23.859
1492.13  36.029  23.859
1492.63  36.157  23.859
1493.13  36.093  23.828
1493.63  36.029  23.859
1494.13  36.029  23.859
1494.63  36.029  23.859
1495.13  36.029  23.797
1495.63  36.029  23.859
1496.13  36.029  23.859
1496.63  35.965  23.859
1497.13  35.965  23.889
1497.63  36.029  23.859
1498.13  36.029  23.859
1498.63  35.965  23.859
1499.13  36.093  23.828
1499.63  35.965  23.828
1500.13  35.965  23.859
1500.63  36.029  23.889
1501.13  36.029  23.859
1501.63  36.029  23.828
1502.13  35.965  23.859
1502.63  36.029  23.859
1503.13  35.965  23.859
1503.63  35.965  23.859
1504.13  36.029  23.859
1504.63  36.029  23.859
1505.13  36.029  23.828
1505.63  36.029  23.859
1506.13  36.029  23.920
1506.63  36.093  23.859
1507.13  36.093  23.859
1507.63  35.965  23.828
1508.13  36.029  23.889
1508.63  36.157  23.859
1509.13  36.093  23.859
1509.63  35.965  23.859
1510.13  35.965  23.859
1510.63  36.029  23.889
1511.13  35.965  23.828
1511.63  36.029  23.828
1512.13  36.029  23.859
1512.63  35.901  23.889
1513.13  36.093  23.889
1513.63  35.965  23.859
1514.13  36.029  23.859
1514.63  35.965  23.859
1515.13  36.029  23.859
1515.63  36.029  23.859
1516.13  36.029  23.889
1516.63  36.029  23.859
1517.13  36.029  23.859
1517.63  36.029  23.859
1518.13  36.029  23.859
1518.63  36.093  23.859
1519.13  36.029  23.889
1519.63  36.029  23.859
1520.13  36.029  23.859
1520.63  36.157  23.859
1521.13  35.965  23.859
1521.63  35.901  23.828
1522.13  35.965  23.828
1522.63  36.029  23.889
1523.13  36.093  23.920
1523.63  36.029  23.889
1524.13  36.093  23.828
1524.63  35.965  23.859
1525.13  36.029  23.889
1525.63  36.093  23.889
1526.13  36.093  23.889
1526.63  36.029  23.859
1527.13  36.093  23.889
1527.63  36.093  23.889
1528.13  36.029  23.828
1528.63  36.093  23.859
1529.13  35.965  23.889
1529.64  36.029  23.828
1530.14  36.093  23.828
1530.64  36.029  23.889
1531.14  36.029  23.859
1531.64  36.093  23.859
1532.14  36.093  23.859
1532.64  36.029  23.889
1533.14  36.029  23.889
1533.64  35.965  23.859
1534.14  36.157  23.828
1534.64  36.029  23.828
1535.14  36.093  23.859
1535.64  36.093  23.889
1536.14  36.093  23.889
1536.64  36.029  23.859
1537.14  36.029  23.859
1537.64  36.093  23.859
1538.14  36.093  23.889
1538.64  36.093  23.859
1539.14  35.965  23.859
1539.64  36.029  23.859
1540.14  36.157  23.859
1540.64  36.093  23.859
1541.14  36.029  23.859
1541.64  36.157  23.889
1542.14  36.093  23.859
1542.64  36.093  23.859
1543.14  36.029  23.859
1543.64  36.093  23.828
1544.14  36.093  23.859
1544.64  36.093  23.859
1545.14  36.093  23.859
1545.64  36.093  23.889
1546.14  36.093  23.859
1546.64  36.029  23.828
1547.14  36.093  23.889
1547.64  36.093  23.859
1548.14  36.029  23.859
1548.64  36.093  23.859
1549.14  36.093  23.859
1549.64  36.093  23.859
1550.14  36.029  23.889
1550.64  36.157  23.859
1551.14  36.093  23.889
1551.64  36.093  23.889
1552.14  36.093  23.828
1552.64  36.093  23.859
1553.14  36.029  23.859
1553.64  36.029  23.859
1554.14  36.157  23.889
1554.64  36.093  23.859
1555.14  36.093  23.859
1555.64  36.093  23.859
1556.14  36.093  23.889
1556.64  35.965  23.889
1557.14  36.093  23.859
1557.64  36.093  23.859
1558.14  36.093  23.889
1558.64  36.093  23.859
1559.14  36.093  23.859
1559.64  36.093  23.859
1560.14  36.093  23.859
1560.64  36.157  23.859
1561.14  36.093  23.889
1561.64  36.157  23.828
1562.14  36.093  23.859
1562.64  36.093  23.889
1563.14  36.093  23.859
1563.64  36.093  23.859
1564.14  35.965  23.889
1564.64  36.157  23.828
1565.14  36.157  23.859
1565.64  36.157  23.859
1566.14  36.093  23.859
1566.64  36.029  23.859
1567.14  36.093  23.859
1567.64  36.157  23.889
1568.14  36.093  23.889
1568.64  36.029  23.828
1569.14  36.029  23.797
1569.64  36.093  23.859
1570.14  36.157  23.828
1570.64  36.093  23.859
1571.14  36.093  23.889
1571.64  36.093  23.889
1572.14  36.093  23.889
1572.64  36.093  23.859
1573.14  36.093  23.889
1573.64  36.157  23.889
1574.14  36.157  23.889
1574.64  36.093  23.859
1575.14  36.093  23.859
1575.64  36.093  23.859
1576.14  36.029  23.859
1576.64  36.093  23.859
1577.14  36.093  23.889
1577.64  36.093  23.859
1578.14  36.029  23.859
1578.64  36.093  23.859
1579.14  36.157  23.859
1579.64  36.221  23.859
1580.14  36.093  23.889
1580.64  36.157  23.859
1581.14  36.093  23.859
1581.64  36.029  23.797
1582.14  36.093  23.859
1582.64  36.157  23.859
1583.14  36.029  23.859
1583.64  36.093  23.859
1584.14  36.157  23.889
1584.64  36.093  23.859
1585.14  36.093  23.859
1585.64  36.157  23.920
1586.14  36.157  23.859
1586.64  36.093  23.859
1587.14  36.093  23.859
1587.64  36.221  23.859
1588.14  36.221  23.889
1588.64  36.093  23.920
1589.14  36.093  23.828
1589.64  36.157  23.859
1590.14  36.157  23.889
1590.64  36.093  23.859
1591.14  36.093  23.859
1591.64  36.157  23.889
1592.14  36.157  23.859
1592.64  36.093  23.859
1593.14  36.157  23.889
1593.64  36.157  23.859
1594.14  36.093  23.920
1594.64  36.157  23.889
1595.14  36.157  23.920
1595.64  36.093  23.889
1596.14  36.157  23.889
1596.64  36.157  23.859
1597.14  36.157  23.920
1597.64  36.093  23.889
1598.14  36.157  23.889
1598.64  36.221  23.889
1599.14  36.093  23.859
1599.64  36.157  23.889
1600.14  36.221  23.889
1600.64  36.157  23.889
1601.14  36.157  23.889
1601.64  36.221  23.889
1602.14  36.157  23.859
1602.64  36.221  23.889
1603.14  36.157  23.859
1603.64  36.157  23.889
1604.14  36.157  23.828
1604.64  36.157  23.859
1605.14  36.157  23.859
1605.64  36.157  23.889
1606.14  36.093  23.859
1606.64  36.157  23.889
1607.14  36.221  23.859
1607.64  36.157  23.859
1608.14  36.221  23.889
1608.64  36.157  23.920
1609.14  36.221  23.859
1609.64  36.157  23.889
1610.14  36.221  23.828
1610.64  36.029  23.889
1611.14  36.157  23.889
1611.64  36.157  23.889
1612.14  36.221  23.889
1612.64  36.157  23.859
1613.14  36.349  23.828
1613.64  36.221  23.859
1614.14  36.157  23.859
1614.64  36.157  23.889
1615.14  36.221  23.889
1615.64  36.157  23.889
1616.14  36.221  23.889
1616.64  36.221  23.889
1617.14  36.221  23.889
1617.64  36.093  23.859
1618.14  36.221  23.920
1618.64  36.285  23.889
1619.14  36.157  23.889
1619.64  36.157  23.889
1620.14  36.157  23.859
1620.64  36.221  23.920
1621.14  36.157  23.889
1621.64  36.221  23.889
1622.14  36.221  23.859
1622.64  36.221  23.859
1623.14  36.221  23.889
1623.64  36.157  23.889
1624.14  36.221  23.889
1624.64  36.157  23.889
1625.14  36.221  23.889
1625.64  36.221  23.889
1626.14  36.349  23.859
1626.64  36.221  23.859
1627.14  36.157  23.889
1627.64  36.221  23.889
1628.14  36.157  23.889
1628.64  36.221  23.889
1629.14  36.221  23.859
1629.64  36.221  23.889
1630.14  36.157  23.889
1630.64  36.157  23.889
1631.14  36.221  23.889
1631.64  36.221  23.889
1632.14  36.221  23.889
1632.64  36.221  23.859
1633.14  36.285  23.859
1633.64  36.157  23.889
1634.14  36.221  23.920
1634.64  36.285  23.889
1635.14  36.285  23.889
1635.64  36.285  23.920
1636.14  36.093  23.859
1636.64  36.157  23.828
1637.14  36.157  23.859
1637.64  36.221  23.889
1638.14  36.285  23.920
1638.64  36.285  23.889
1639.14  36.285  23.889
1639.64  36.221  23.859
1640.14  36.221  23.889
1640.64  36.285  23.889
1641.14  36.157  23.859
1641.64  36.221  23.889
1642.14  36.221  23.859
1642.65  36.221  23.920
1643.15  36.221  23.889
1643.65  36.221  23.951
1644.15  36.221  23.889
1644.65  36.157  23.920
1645.15  36.157  23.889
1645.65  36.221  23.889
1646.15  36.221  23.889
1646.65  36.221  23.920
1647.15  36.221  23.889
1647.65  36.221  23.920
1648.15  36.157  23.920
1648.65  36.221  23.889
1649.15  36.221  23.859
1649.65  36.157  23.889
1650.15  36.221  23.889
1650.65  36.285  23.859
1651.15  36.221  23.889
1651.65  36.349  23.889
1652.15  36.221  23.859
1652.65  36.157  23.859
1653.15  36.285  23.889
1653.65  36.221  23.889
1654.15  36.221  23.889
1654.65  36.221  23.889
1655.15  36.221  23.889
1655.65  36.221  23.889
1656.15  36.093  23.859
1656.65  36.285  23.920
1657.15  36.221  23.920
1657.65  36.349  23.889
1658.15  36.285  23.920
1658.65  36.221  23.859
1659.15  36.221  23.859
1659.65  36.221  23.859
1660.15  36.285  23.889
1660.65  36.221  23.889
1661.15  36.221  23.889
1661.65  36.285  23.889
1662.15  36.157  23.889
1662.65  36.221  23.920
1663.15  36.285  23.859
1663.65  36.221  23.920
1664.15  36.221  23.859
1664.65  36.221  23.859
1665.15  36.285  23.889
1665.65  36.221  23.889
1666.15  36.157  23.889
1666.65  36.285  23.920
1667.15  36.221  23.889
1667.65  36.221  23.859
1668.15  36.157  23.859
1668.65  36.221  23.889
1669.15  36.285  23.920
1669.65  36.221  23.889
1670.15  36.285  23.920
1670.65  36.221  23.951
1671.15  36.221  23.889
1671.65  36.221  23.859
1672.15  36.285  23.859
1672.65  36.285  23.889
1673.15  36.285  23.889
1673.65  36.221  23.859
1674.15  36.285  23.889
1674.65  36.157  23.920
1675.15  36.285  23.859
1675.65  36.157  23.889
1676.15  36.221  23.951
1676.65  36.285  23.920
1677.15  36.285  23.889
1677.65  36.285  23.828
1678.15  36.157  23.889
1678.65  36.285  23.889
1679.15  36.285  23.889
1679.65  36.221  23.889
1680.15  36.221  23.920
1680.65  36.413  23.889
1681.15  36.221  23.889
1681.65  36.285  23.889
1682.15  36.221  23.859
1682.65  36.285  23.889
1683.15  36.285  23.859
1683.65  36.221  23.920
1684.15  36.221  23.889
1684.65  36.349  23.889
1685.15  36.221  23.889
1685.65  36.221  23.920
1686.15  36.285  23.889
1686.65  36.285  23.889
1687.15  36.285  23.889
1687.65  36.221  23.889
1688.15  36.285  23.889
1688.65  36.221  23.889
1689.15  36.285  23.889
1689.65  36.221  23.920
1690.15  36.349  23.859
1690.65  36.285  23.889
1691.15  36.221  23.889
1691.65  36.349  23.920
1692.15  36.285  23.889
1692.65  36.285  23.889
1693.15  36.285  23.920
1693.65  36.285  23.889
1694.15  36.285  23.889
1694.65  36.285  23.889
1695.15  36.285  23.889
1695.65  36.285  23.889
1696.15  36.285  23.889
1696.65  36.413  23.889
1697.15  36.285  23.920
1697.65  36.285  23.920
1698.15  36.221  23.889
1698.65  36.285  23.889
1699.15  36.285  23.859
1699.65  36.221  23.889
1700.15  36.157  23.920
1700.65  36.285  23.889
1701.15  36.285  23.920
1701.65  36.285  23.889
1702.15  36.285  23.889
1702.65  36.285  23.889
1703.15  36.349  23.920
1703.65  36.285  23.889
1704.15  36.285  23.889
1704.65  36.285  23.920
1705.15  36.285  23.889
1705.65  36.349  23.920
1706.15  36.349  23.859
1706.65  36.285  23.920
1707.15  36.285  23.889
1707.65  36.285  23.951
1708.15  36.285  23.920
1708.65  36.413  23.889
1709.15  36.349  23.982
1709.65  36.349  23.889
1710.15  36.477  23.889
1710.65  36.285  23.920
1711.15  36.285  23.889
1711.65  36.349  23.889
1712.15  36.285  23.889
1712.65  36.349  23.889
1713.15  36.349  23.889
1713.65  36.349  23.889
1714.15  36.285  23.859
1714.65  36.285  23.889
1715.15  36.285  23.889
1715.65  36.285  23.951
1716.15  36.349  23.889
1716.65  36.285  23.920
1717.15  36.285  23.859
1717.65  36.285  23.889
1718.15  36.285  23.951
1718.65  36.349  23.920
1719.15  36.285  23.889
1719.65  36.349  23.889
1720.15  36.285  23.889
1720.65  36.285  23.859
1721.15  36.349  23.889
1721.65  36.349  23.889
1722.15  36.349  23.920
1722.65  36.285  23.920
1723.15  36.221  23.889
1723.65  36.349  23.859
1724.15  36.285  23.889
1724.65  36.285  23.920
1725.15  36.285  23.889
1725.65  36.349  23.889
1726.15  36.285  23.889
1726.65  36.285  23.982
1727.15  36.349  23.920
1727.65  36.285  23.889
1728.15  36.285  23.889
1728.65  36.349  23.889
1729.15  36.285  23.920
1729.65  36.349  23.889
1730.15  36.349  23.889
1730.65  36.349  23.889
1731.15  36.413  23.920
1731.65  36.285  23.859
1732.15  36.285  23.951
1732.65  36.349  23.889
1733.15  36.349  23.889
1733.65  36.349  23.859
1734.15  36.349  23.889
1734.65  36.285  23.889
1735.15  36.349  23.889
1735.65  36.157  23.889
1736.15  36.285  23.889
1736.65  36.349  23.889
1737.15  36.285  23.889
1737.65  36.349  23.889
1738.15  36.349  23.889
1738.65  36.349  23.920
1739.15  36.285  23.889
1739.65  36.349  23.889
1740.15  36.285  23.920
1740.65  36.285  23.920
1741.15  36.285  23.859
1741.65  36.349  23.889
1742.15  36.349  23.920
1742.65  36.285  23.889
1743.15  36.285  23.889
1743.65  36.349  23.889
1744.15  36.285  23.889
1744.65  36.349  23.889
1745.15  36.221  23.920
1745.65  36.349  23.889
1746.15  36.349  23.951
1746.65  36.285  23.889
1747.15  36.221  23.889
1747.65  36.349  23.889
1748.15  36.285  23.889
1748.65  36.349  23.859
1749.15  36.221  23.889
1749.65  36.349  23.889
1750.15  36.285  23.889
1750.65  36.349  23.889
1751.15  36.413  23.859
1751.65  36.349  23.859
1752.15  36.349  23.920
1752.65  36.349  23.920
1753.15  36.413  23.920
1753.65  36.413  23.889
1754.15  36.349  23.920
1754.65  36.349  23.889
1755.15  36.349  23.951
1755.66  36.349  23.920
1756.16  36.413  23.889
1756.66  36.349  23.920
1757.16  36.285  23.920
1757.66  36.349  23.920
1758.16  36.349  23.920
1758.66  36.285  23.889
1759.16  36.349  23.920
1759.66  36.413  23.920
1760.16  36.349  23.920
1760.66  36.349  23.920
1761.16  36.413  23.889
1761.66  36.285  23.889
1762.16  36.285  23.920
1762.66  36.349  23.889
1763.16  36.349  23.920
1763.66  36.413  23.951
1764.16  36.349  23.920
1764.66  36.413  23.889
1765.16  36.349  23.920
1765.66  36.349  23.920
1766.16  36.413  23.920
1766.66  36.349  23.889
1767.16  36.413  23.920
1767.66  36.413  23.920
1768.16  36.413  23.920
1768.66  36.349  23.920
1769.16  36.413  23.920
1769.66  36.413  23.920
1770.16  36.349  23.889
1770.66  36.349  23.889
1771.16  36.413  23.951
1771.66  36.349  23.889
1772.16  36.349  23.920
1772.66  36.413  23.920
1773.16  36.413  23.920
1773.66  36.349  23.920
1774.16  36.349  23.920
1774.66  36.413  23.920
1775.16  36.349  23.889
1775.66  36.349  23.920
1776.16  36.349  23.951
1776.66  36.413  23.859
1777.16  36.413  23.889
1777.66  36.413  23.920
1778.16  36.413  23.920
1778.66  36.349  23.889
1779.16  36.413  23.889
1779.66  36.349  23.920
1780.16  36.349  23.889
1780.66  36.349  23.889
1781.16  36.413  23.920
1781.66  36.413  23.889
1782.16  36.349  23.920
1782.66  36.349  23.889
1783.16  36.349  23.920
1783.66  36.349  23.920
1784.16  36.413  23.920
1784.66  36.477  23.889
1785.16  36.349  23.889
1785.66  36.413  23.920
1786.16  36.349  23.889
1786.66  36.349  23.889
1787.16  36.413  23.920
1787.66  36.413  23.920
1788.16  36.413  23.920
1788.66  36.285  23.920
1789.16  36.349  23.920
1789.66  36.349  23.920
1790.16  36.413  23.982
1790.66  36.413  23.920
1791.16  36.349  23.920
1791.66  36.413  23.920
1792.16  36.349  23.951
1792.66  36.413  23.920
1793.16  36.349  23.920
1793.66  36.413  23.920
1794.16  36.413  23.889
1794.66  36.413  23.920
1795.16  36.605  23.920
1795.66  36.349  23.920
1796.16  36.349  23.920
1796.66  36.413  23.920
1797.16  36.221  23.920
1797.66  36.477  23.920
1798.16  36.413  23.920
1798.66  36.413  23.889
1799.16  36.285  23.920
1799.66  36.413  23.920
1800.16  36.413  23.951
1800.66  36.541  23.859
1801.16  36.349  23.920
1801.66  36.413  23.889
1802.16  36.477  23.920
1802.66  36.349  23.920
1803.16  36.413  23.889
1803.66  36.413  23.951
1804.16  36.413  23.951
1804.66  36.349  23.920
1805.16  36.477  23.920
1805.66  36.477  23.889
1806.16  36.413  23.889
1806.66  36.349  23.982
1807.16  36.477  23.951
1807.66  36.477  23.920
1808.16  36.413  23.920
1808.66  36.349  23.920
1809.16  36.413  23.920
1809.66  36.413  23.920
1810.16  36.413  23.889
1810.66  36.413  23.920
1811.16  36.413  23.889
1811.66  36.477  23.920
1812.16  36.349  23.920
1812.66  36.349  23.920
1813.16  36.413  23.951
1813.66  36.477  23.951
1814.16  36.477  23.951
1814.66  36.413  23.920
1815.16  36.349  23.889
1815.66  36.413  23.920
1816.16  36.413  23.920
1816.66  36.477  23.920
1817.16  36.413  23.920
1817.66  36.349  23.920
1818.16  36.413  23.920
1818.66  36.413  23.920
1819.16  36.349  23.920
1819.66  36.413  23.920
1820.16  36.413  23.920
1820.66  36.413  23.859
1821.16  36.349  23.920
1821.66  36.413  23.920
1822.16  36.413  23.920
1822.66  36.285  23.920
1823.16  36.605  23.920
1823.66  36.349  23.920
1824.16  36.413  23.920
1824.66  36.477  23.889
1825.16  36.477  23.951
1825.66  36.413  23.920
1826.16  36.477  23.920
1826.66  36.477  23.920
1827.16  36.349  23.920
1827.66  36.349  23.889
1828.16  36.477  23.920
1828.66  36.349  23.920
1829.16  36.349  23.951
1829.66  36.413  23.951
1830.16  36.541  23.859
1830.66  36.413  23.920
1831.16  36.413  23.920
1831.66  36.477  23.920
1832.16  36.349  23.920
1832.66  36.413  23.951
1833.16  36.541  23.920
1833.66  36.477  23.920
1834.16  36.413  23.982
1834.66  36.413  23.920
1835.16  36.413  23.920
1835.66  36.477  23.920
1836.16  36.413  23.951
1836.66  36.413  23.920
1837.16  36.413  23.920
1837.66  36.413  23.920
1838.16  36.477  23.951
1838.66  36.477  23.920
1839.16  36.413  23.951
1839.66  36.349  23.920
1840.16  36.477  23.951
1840.66  36.413  23.889
1841.16  36.413  23.951
1841.66  36.477  23.920
1842.16  36.477  23.982
1842.66  36.413  23.951
1843.16  36.477  23.920
1843.66  36.477  23.951
1844.16  36.477  23.889
1844.66  36.477  23.920
1845.16  36.413  23.951
1845.66  36.413  23.920
1846.16  36.477  23.951
1846.66  36.477  23.951
1847.16  36.477  23.920
1847.66  36.477  23.920
1848.16  36.477  23.920
1848.66  36.413  23.951
1849.16  36.477  23.951
1849.66  36.477  23.920
1850.16  36.477  23.951
1850.66  36.413  23.920
1851.16  36.477  23.951
1851.66  36.541  23.982
1852.16  36.477  23.920
1852.66  36.477  23.920
1853.16  36.477  23.920
1853.66  36.413  23.920
1854.16  36.413  23.889
1854.66  36.413  23.951
1855.16  36.477  23.920
1855.66  36.477  23.920
1856.16  36.477  23.951
1856.66  36.477  23.920
1857.16  36.541  23.920
1857.66  36.605  23.889
1858.16  36.349  23.889
1858.66  36.477  23.920
1859.16  36.477  23.920
1859.66  36.413  23.920
1860.16  36.413  23.889
1860.66  36.477  23.920
1861.16  36.413  23.982
1861.66  36.541  23.920
1862.16  36.477  23.951
1862.66  36.477  23.920
1863.16  36.541  23.889
1863.66  36.413  23.889
1864.16  36.477  23.889
1864.66  36.477  23.889
1865.16  36.477  23.889
1865.66  36.477  23.889
1866.16  36.477  23.920
1866.66  36.477  23.920
1867.16  36.477  23.920
1867.66  36.605  23.920
1868.16  36.477  23.920
1868.66  36.477  23.920
1869.17  36.541  23.951
1869.67  36.477  23.920
1870.17  36.477  23.951
1870.67  36.477  23.920
1871.17  36.477  23.889
1871.67  36.477  23.889
1872.17  36.477  23.920
1872.67  36.477  23.951
1873.17  36.413  23.920
1873.67  36.477  23.920
1874.17  36.477  23.951
1874.67  36.477  23.920
1875.17  36.413  23.920
1875.67  36.477  23.920
1876.17  36.477  23.982
1876.67  36.477  23.951
1877.17  36.541  23.951
1877.67  36.477  23.920
1878.17  36.477  23.951
1878.67  36.477  23.951
1879.17  36.477  23.951
1879.67  36.477  23.920
1880.17  36.477  23.951
1880.67  36.413  23.920
1881.17  36.477  23.920
1881.67  36.413  23.920
1882.17  36.541  23.920
1882.67  36.413  23.920
1883.17  36.477  23.889
1883.67  36.413  23.951
1884.17  36.477  23.951
1884.67  36.541  23.920
1885.17  36.541  23.920
1885.67  36.477  23.951
1886.17  36.477  23.920
1886.67  36.477  23.951
1887.17  36.477  23.920
1887.67  36.477  23.859
1888.17  36.477  23.951
1888.67  36.477  23.951
1889.17  36.413  23.951
1889.67  36.477  23.920
1890.17  36.541  23.920
1890.67  36.477  23.920
1891.17  36.477  23.951
1891.67  36.477  23.951
1892.17  36.541  23.920
1892.67  36.477  23.889
1893.17  36.477  23.920
1893.67  36.541  23.920
1894.17  36.477  23.982
1894.67  36.541  23.920
1895.17  36.413  23.951
1895.67  36.541  23.920
1896.17  36.477  23.920
1896.67  36.477  23.920
1897.17  36.541  23.951
1897.67  36.541  23.982
1898.17  36.541  23.951
1898.67  36.477  23.889
1899.17  36.477  23.951
1899.67  36.477  23.920
1900.17  36.541  23.920
1900.67  36.477  23.951
1901.17  36.413  23.951
1901.67  36.477  23.920
1902.17  36.413  23.951
1902.67  36.413  23.982
1903.17  36.541  23.920
1903.67  36.477  23.951
1904.17  36.605  23.920
1904.67  36.413  23.951
1905.17  36.413  23.951
1905.67  36.477  23.951
1906.17  36.477  23.920
1906.67  36.413  23.920
1907.17  36.541  23.920
1907.67  36.541  23.920
1908.17  36.605  23.920
1908.67  36.541  23.920
1909.17  36.541  23.951
1909.67  36.605  23.920
1910.17  36.541  23.920
1910.67  36.541  23.951
1911.17  36.477  23.920
1911.67  36.541  23.982
1912.17  36.605  23.951
1912.67  36.477  23.920
1913.17  36.541  23.920
1913.67  36.541  23.982
1914.17  36.541  23.951
1914.67  36.669  23.859
1915.17  36.541  23.920
1915.67  36.541  23.951
1916.17  36.541  23.920
1916.67  36.477  23.920
1917.17  36.477  23.951
1917.67  36.477  23.951
1918.17  36.477  23.920
1918.67  36.541  23.982
1919.17  36.477  23.951
1919.67  36.477  23.920
1920.17  36.541  23.951
1920.67  36.477  23.951
1921.17  36.541  23.951
1921.67  36.477  23.920
1922.17  36.541  23.920
1922.67  36.541  23.920
1923.17  36.541  23.951
1923.67  36.541  23.920
1924.17  36.541  23.920
1924.67  36.605  23.982
1925.17  36.541  23.951
1925.67  36.541  23.951
1926.17  36.541  23.920
1926.67  36.605  23.951
1927.17  36.477  23.920
1927.67  36.477  23.920
1928.17  36.477  23.951
1928.67  36.541  23.920
1929.17  36.477  23.920
1929.67  36.541  23.982
1930.17  36.541  23.951
1930.67  36.605  23.951
1931.17  36.605  23.951
1931.67  36.541  24.013
1932.17  36.605  23.951
1932.67  36.541  23.951
1933.17  36.541  23.951
1933.67  36.541  23.951
1934.17  36.541  23.951
1934.67  36.541  23.951
1935.17  36.541  23.951
1935.67  36.605  23.920
1936.17  36.477  23.951
1936.67  36.541  23.889
1937.17  36.541  23.920
1937.67  36.605  23.920
1938.17  36.541  23.951
1938.67  36.541  23.982
1939.17  36.605  23.951
1939.67  36.541  23.951
1940.17  36.605  23.982
1940.67  36.605  23.951
1941.17  36.541  23.920
1941.67  36.541  23.951
1942.17  36.541  23.920
1942.67  36.605  23.920
1943.17  36.541  23.920
1943.67  36.605  23.951
1944.17  36.541  23.920
1944.67  36.541  23.920
1945.17  36.541  23.920
1945.67  36.541  23.951
1946.17  36.541  23.951
1946.67  36.733  23.920
1947.17  36.541  23.951
1947.67  36.541  23.951
1948.17  36.605  23.951
1948.67  36.605  23.951
1949.17  36.669  23.951
1949.67  36.541  23.889
1950.17  36.605  23.920
1950.67  36.605  23.951
1951.17  36.541  23.920
1951.67  36.477  23.920
1952.17  36.541  23.982
1952.67  36.477  23.920
1953.17  36.605  23.982
1953.67  36.669  23.951
1954.17  36.541  23.951
1954.67  36.541  23.951
1955.17  36.541  23.920
1955.67  36.669  23.951
1956.17  36.541  23.920
1956.67  36.541  23.951
1957.17  36.541  23.920
1957.67  36.541  23.951
1958.17  36.605  23.982
1958.67  36.605  23.889
1959.17  36.541  23.951
1959.67  36.605  23.982
1960.17  36.605  23.982
1960.67  36.541  23.951
1961.17  36.541  23.920
1961.67  36.477  23.982
1962.17  36.541  23.951
1962.67  36.605  23.951
1963.17  36.477  23.982
1963.67  36.541  23.920
1964.17  36.605  23.920
1964.67  36.541  23.920
1965.17  36.541  23.920
1965.67  36.541  23.951
1966.17  36.541  23.920
1966.67  36.605  23.951
1967.17  36.541  23.920
1967.67  36.477  23.951
1968.17  36.541  23.920
1968.67  36.605  23.951
1969.17  36.669  23.951
1969.67  36.605  23.951
1970.17  36.541  23.951
1970.67  36.541  23.920
1971.17  36.477  23.920
1971.67  36.605  23.920
1972.17  36.541  23.982
1972.67  36.541  23.951
1973.17  36.605  24.013
1973.67  36.605  23.889
1974.17  36.541  23.982
1974.67  36.605  23.951
1975.17  36.541  23.982
1975.67  36.605  23.982
1976.17  36.541  23.951
1976.67  36.605  23.951
1977.17  36.605  23.951
1977.67  36.605  23.982
1978.17  36.669  23.951
1978.67  36.541  23.951
1979.17  36.605  23.951
1979.67  36.605  23.951
1980.17  36.541  23.951
1980.67  36.541  23.951
1981.17  36.541  23.951
1981.67  36.605  23.951
1982.18  36.605  23.951
1982.68  36.605  23.982
1983.18  36.605  23.889
1983.68  36.605  23.951
1984.18  36.733  23.951
1984.68  36.605  23.951
1985.18  36.541  23.982
1985.68  36.605  23.951
1986.18  36.605  23.951
1986.68  36.605  23.951
1987.18  36.669  23.951
1987.68  36.605  23.982
1988.18  36.541  23.951
1988.68  36.605  23.951
1989.18  36.669  23.951
1989.68  36.605  23.951
1990.18  36.605  23.982
1990.68  36.669  23.982
1991.18  36.605  23.982
1991.68  36.669  23.982
1992.18  36.669  24.013
1992.68  36.541  23.982
1993.18  36.605  23.920
1993.68  36.541  23.982
1994.18  36.669  24.043
1994.68  36.669  23.951
1995.18  36.605  23.951
1995.68  36.605  23.982
1996.18  36.669  23.951
1996.68  36.669  23.982
1997.18  36.605  23.982
1997.68  36.605  23.982
1998.18  36.669  23.982
1998.68  36.605  23.982
1999.18  36.605  23.982
1999.68  36.605  23.982
2000.18  36.605  23.982
2000.68  36.669  23.951
2001.18  36.605  23.951
2001.68  36.605  23.951
2002.18  36.669  23.982
2002.68  36.605  23.982
2003.18  36.605  23.951
2003.68  36.605  23.982
2004.18  36.733  23.982
2004.68  36.669  23.951
2005.18  36.541  23.982
2005.68  36.605  23.982
2006.18  36.669  23.982
2006.68  36.669  23.951
2007.18  36.669  23.951
2007.68  36.669  23.982
2008.18  36.669  23.951
2008.68  36.605  23.920
2009.18  36.541  23.982
2009.68  36.605  23.951
2010.18  36.605  23.982
2010.68  36.605  23.951
2011.18  36.605  23.982
2011.68  36.605  23.951
2012.18  36.669  23.951
2012.68  36.605  23.982
2013.18  36.669  24.013
2013.68  36.605  23.951
2014.18  36.605  23.951
2014.68  36.669  23.951
2015.18  36.669  23.951
2015.68  36.669  23.982
2016.18  36.669  23.951
2016.68  36.669  23.982
2017.18  36.669  23.951
2017.68  36.605  23.920
2018.18  36.733  23.920
2018.68  36.605  23.951
2019.18  36.605  23.951
2019.68  36.605  23.951
2020.18  36.541  23.982
2020.68  36.669  23.982
2021.18  36.669  23.982
2021.68  36.669  23.982
2022.18  36.669  23.951
2022.68  36.605  23.951
2023.18  36.669  23.982
2023.68  36.605  23.982
2024.18  36.669  23.951
2024.68  36.669  23.951
2025.18  36.669  23.951
2025.68  36.605  23.982
2026.18  36.669  23.951
2026.68  36.669  23.982
2027.18  36.541  23.951
2027.68  36.669  23.982
2028.18  36.605  23.982
2028.68  36.669  23.982
2029.18  36.669  23.920
2029.68  36.733  23.982
2030.18  36.669  23.982
2030.68  36.669  23.982
2031.18  36.605  23.982
2031.68  36.669  23.982
2032.18  36.733  23.951
2032.68  36.541  23.951
2033.18  36.605  24.013
2033.68  36.605  23.982
2034.18  36.669  23.982
2034.68  36.669  23.951
2035.18  36.669  23.982
2035.68  36.605  24.013
2036.18  36.605  23.982
2036.68  36.669  23.889
2037.18  36.733  23.982
2037.68  36.669  23.951
2038.18  36.605  24.013
2038.68  36.605  23.951
2039.18  36.669  24.043
2039.68  36.669  23.920
2040.18  36.669  23.951
2040.68  36.605  24.043
2041.18  36.605  23.982
2041.68  36.669  23.951
2042.18  36.669  23.951
2042.68  36.733  23.951
2043.18  36.541  23.951
2043.68  36.669  23.982
2044.18  36.669  23.920
2044.68  36.605  23.951
2045.18  36.605  23.951
2045.68  36.669  23.951
2046.18  36.605  23.920
2046.68  36.669  23.982
2047.18  36.669  23.951
2047.68  36.669  23.951
2048.18  36.669  24.013
2048.68  36.669  23.889
2049.18  36.669  23.982
2049.68  36.669  23.982
2050.18  36.669  23.982
2050.68  36.669  23.982
2051.18  36.605  23.951
2051.68  36.669  23.982
2052.18  36.541  23.951
2052.68  36.669  23.982
2053.18  36.605  24.013
2053.68  36.605  23.951
2054.18  36.733  23.982
2054.68  36.669  23.951
2055.18  36.669  23.982
2055.68  36.669  23.982
2056.18  36.669  23.951
2056.68  36.669  23.920
2057.18  36.669  24.043
2057.68  36.669  23.982
2058.18  36.605  23.982
2058.68  36.605  23.951
2059.18  36.669  23.951
2059.68  36.669  23.951
2060.18  36.669  24.013
2060.68  36.669  23.982
2061.18  36.669  23.982
2061.68  36.669  23.982
2062.18  36.669  23.920
2062.68  36.669  23.982
2063.18  36.733  23.951
2063.68  36.605  24.013
2064.18  36.605  23.951
2064.68  36.669  23.951
2065.18  36.605  23.951
2065.68  36.669  23.982
2066.18  36.669  23.951
2066.68  36.605  23.982
2067.18  36.733  24.013
2067.68  36.669  23.982
2068.18  36.669  23.982
2068.68  36.669  23.951
2069.18  36.669  23.982
2069.68  36.733  23.920
2070.18  36.733  23.951
2070.68  36.669  23.982
2071.18  36.669  23.982
2071.68  36.669  23.951
2072.18  36.605  23.951
2072.68  36.797  23.951
2073.18  36.669  23.982
2073.68  36.733  23.951
2074.18  36.669  23.951
2074.68  36.733  23.951
2075.18  36.669  23.982
2075.68  36.669  24.074
2076.18  36.733  23.951
2076.68  36.733  23.982
2077.18  36.669  23.951
2077.68  36.669  23.982
2078.18  36.733  23.982
2078.68  36.669  23.951
2079.18  36.733  24.013
2079.68  36.669  23.951
2080.18  36.669  23.920
2080.68  36.669  23.982
2081.18  36.733  23.982
2081.68  36.669  23.951
2082.18  36.669  23.982
2082.68  36.733  23.982
2083.18  36.733  23.982
2083.68  36.733  24.013
2084.18  36.669  24.043
2084.68  36.669  23.951
2085.18  36.605  23.982
2085.68  36.733  23.951
2086.18  36.669  23.982
2086.68  36.669  23.951
2087.18  36.669  24.043
2087.68  36.733  23.951
2088.18  36.797  23.951
2088.68  36.733  23.982
2089.18  36.669  23.982
2089.68  36.733  23.982
2090.18  36.733  23.951
2090.68  36.605  23.982
2091.18  36.605  24.013
2091.68  36.733  23.982
2092.18  36.733  23.951
2092.68  36.669  23.951
2093.18  36.733  23.951
2093.68  36.669  23.982
2094.18  36.669  23.920
2094.68  36.733  23.982
2095.19  36.605  23.982
2095.69  36.733  23.951
2096.19  36.669  23.982
2096.69  36.733  23.982
2097.19  36.733  23.982
2097.69  36.669  23.951
2098.19  36.797  23.951
2098.69  36.669  23.951
2099.19  36.669  23.982
2099.69  36.669  23.951
2100.19  36.669  24.013
2100.69  36.669  23.982
2101.19  36.733  23.982
2101.69  36.669  24.013
2102.19  36.733  23.982
2102.69  36.733  24.043
2103.19  36.733  23.982
2103.69  36.861  24.013
2104.19  36.669  23.982
2104.69  36.669  23.951
2105.19  36.605  23.982
2105.69  36.669  23.982
2106.19  36.669  23.982
2106.69  36.733  24.013
2107.19  36.733  23.951
2107.69  36.733  23.982
2108.19  36.605  23.982
2108.69  36.605  23.951
2109.19  36.605  23.951
2109.69  36.669  23.982
2110.19  36.733  24.013
2110.69  36.733  23.982
2111.19  36.733  23.982
2111.69  36.669  23.982
2112.19  36.733  23.951
2112.69  36.733  23.982
2113.19  36.733  23.951
2113.69  36.669  23.951
2114.19  36.733  23.982
2114.69  36.669  23.982
2115.19  36.733  23.982
2115.69  36.797  23.982
2116.19  36.669  23.982
2116.69  36.669  23.982
2117.19  36.733  23.951
2117.69  36.733  23.982
2118.19  36.733  23.982
2118.69  36.797  23.982
2119.19  36.733  23.982
2119.69  36.861  23.951
2120.19  36.669  23.982
2120.69  36.669  23.982
2121.19  36.797  23.982
2121.69  36.733  23.982
2122.19  36.733  23.982
2122.69  36.797  23.982
2123.19  36.733  24.013
2123.69  36.669  24.013
2124.19  36.797  24.013
2124.69  36.733  23.982
2125.19  36.733  24.043
2125.69  36.797  24.013
2126.19  36.605  24.013
2126.69  36.733  23.982
2127.19  36.669  24.013
2127.69  36.797  23.982
2128.19  36.797  23.982
2128.69  36.861  23.982
2129.19  36.925  23.982
2129.69  36.669  24.013
2130.19  36.669  23.982
2130.69  36.861  23.982
2131.19  36.733  24.043
2131.69  36.733  24.013
2132.19  36.797  23.951
2132.69  36.669  23.982
2133.19  36.733  23.982
2133.69  36.733  24.074
2134.19  36.797  24.013
2134.69  36.733  23.982
2135.19  36.733  24.013
2135.69  36.669  23.951
2136.19  36.733  23.982
2136.69  36.733  23.982
2137.19  36.733  23.951
2137.69  36.733  24.013
2138.19  36.669  23.951
2138.69  36.733  23.951
2139.19  36.733  23.982
2139.69  36.669  23.982
2140.19  36.669  23.982
2140.69  36.669  23.951
2141.19  36.733  23.951
2141.69  36.669  23.982
2142.19  36.733  23.982
2142.69  36.797  23.982
2143.19  36.733  23.951
2143.69  36.733  23.982
2144.19  36.733  24.013
2144.69  36.733  23.982
2145.19  36.733  23.982
2145.69  36.733  24.013
2146.19  36.733  24.043
2146.69  36.733  24.013
2147.19  36.669  23.982
2147.69  36.733  24.013
2148.19  36.669  23.982
2148.69  36.797  23.982
2149.19  36.669  23.982
2149.69  36.733  23.920
2150.19  36.669  23.982
2150.69  36.733  24.013
2151.19  36.797  24.013
2151.69  36.797  23.982
2152.19  36.605  24.013
2152.69  36.733  23.951
2153.19  36.733  24.043
2153.69  36.733  23.951
2154.19  36.733  23.982
2154.69  36.669  23.982
2155.19  36.797  23.951
2155.69  36.733  24.013
2156.19  36.733  23.951
2156.69  36.669  23.982
2157.19  36.797  23.982
2157.69  36.733  24.013
2158.19  36.733  23.982
2158.69  36.733  24.013
2159.19  36.733  24.013
2159.69  36.733  24.013
2160.19  36.733  24.013
2160.69  36.797  24.013
2161.19  36.797  23.982
2161.69  36.733  24.013
2162.19  36.733  23.982
2162.69  36.797  24.013
2163.19  36.733  24.013
2163.69  36.733  24.013
2164.19  36.733  24.013
2164.69  36.733  24.043
2165.19  36.733  24.013
2165.69  36.733  23.982
2166.19  36.797  24.013
2166.69  36.797  24.013
2167.19  36.733  23.982
2167.69  36.669  23.982
2168.19  36.797  23.982
2168.69  36.733  23.982
2169.19  36.733  24.013
2169.69  36.733  24.013
2170.19  36.797  24.013
2170.69  36.733  24.013
2171.19  36.797  23.951
2171.69  36.797  24.043
2172.19  36.733  23.982
2172.69  36.733  23.982
2173.19  36.797  24.013
2173.69  36.797  24.013
2174.19  36.733  23.982
2174.69  36.733  24.013
2175.19  36.797  24.013
2175.69  36.797  24.013
2176.19  36.733  24.043
2176.69  36.797  24.013
2177.19  36.797  24.013
2177.69  36.797  24.013
2178.19  36.797  23.982
2178.69  36.797  24.013
2179.19  36.797  24.013
2179.69  36.605  23.951
2180.19  36.733  23.982
2180.69  36.669  23.982
2181.19  36.797  23.982
2181.69  36.733  23.982
2182.19  36.797  24.013
2182.69  36.733  24.013
2183.19  36.797  24.013
2183.69  36.797  23.982
2184.19  36.797  23.982
2184.69  36.797  24.013
2185.19  36.797  24.013
2185.69  36.797  23.982
2186.19  36.733  23.982
2186.69  36.861  24.013
2187.19  36.733  23.982
2187.69  36.797  24.013
2188.19  36.797  23.982
2188.69  36.797  23.951
2189.19  36.797  23.982
2189.69  36.797  24.013
2190.19  36.733  23.982
2190.69  36.669  24.013
2191.19  36.797  24.013
2191.69  36.797  23.951
2192.19  36.797  23.982
2192.69  36.797  24.013
2193.19  36.797  24.013
2193.69  36.733  24.043
2194.19  36.797  23.982
2194.69  36.797  24.013
2195.19  36.797  24.013
2195.69  36.733  24.043
2196.19  36.861  24.013
2196.69  36.797  23.982
2197.19  36.797  23.982
2197.70  36.797  24.013
2198.20  36.733  24.013
2198.70  36.797  23.982
2199.20  36.797  23.982
2199.70  36.797  24.013
2200.20  36.797  24.013
2200.70  36.733  24.013
2201.20  36.925  23.982
2201.70  36.797  23.982
2202.20  36.797  24.043
2202.70  36.797  24.043
2203.20  36.797  24.013
2203.70  36.797  24.013
2204.20  36.797  24.013
2204.70  36.733  23.982
2205.20  36.797  24.043
2205.70  36.733  23.982
2206.20  36.797  24.013
2206.70  36.797  23.982
2207.20  36.861  24.013
2207.70  36.733  23.982
2208.20  36.797  24.013
2208.70  36.733  24.013
2209.20  36.797  24.013
2209.70  36.733  24.013
2210.20  36.733  24.013
2210.70  36.797  23.982
2211.20  36.797  23.982
2211.70  36.797  24.013
2212.20  36.733  24.013
2212.70  36.733  24.013
2213.20  36.989  23.982
2213.70  36.733  23.951
2214.20  36.733  24.013
2214.70  36.797  24.013
2215.20  36.861  23.982
2215.70  36.797  23.982
2216.20  36.797  23.982
2216.70  36.733  24.013
2217.20  36.797  24.013
2217.70  36.797  23.982
2218.20  36.733  23.982
2218.70  36.797  23.951
2219.20  36.797  24.043
2219.70  36.733  23.982
2220.20  36.797  23.982
2220.70  36.669  23.982
2221.20  36.797  24.013
2221.70  36.797  23.982
2222.20  36.861  23.951
2222.70  36.797  24.043
2223.20  36.797  24.013
2223.70  36.733  24.013
2224.20  36.733  24.013
2224.70  36.797  23.982
2225.20  36.797  24.013
2225.70  36.861  23.951
2226.20  36.797  24.013
2226.70  36.733  24.013
2227.20  36.861  24.013
2227.70  36.797  24.013
2228.20  36.733  24.013
2228.70  36.733  24.013
2229.20  36.733  23.982
2229.70  36.797  24.013
2230.20  36.733  23.982
2230.70  36.861  24.013
2231.20  36.733  23.982
2231.70  36.797  23.982
2232.20  36.733  24.013
2232.70  36.797  24.013
2233.20  36.861  23.982
2233.70  36.797  23.982
2234.20  36.797  24.013
2234.70  36.797  24.013
2235.20  36.797  24.013
2235.70  36.733  23.951
2236.20  36.797  23.982
2236.70  36.733  24.043
2237.20  36.669  24.013
2237.70  36.733  24.043
2238.20  36.797  24.013
2238.70  36.797  24.013
2239.20  36.733  23.982
2239.70  36.797  24.013
2240.20  36.989  23.982
2240.70  36.797  24.043
2241.20  36.797  24.043
2241.70  36.797  23.982
2242.20  36.797  24.043
2242.70  36.861  24.043
2243.20  36.797  24.043
2243.70  36.733  24.013
2244.20  36.861  24.013
2244.70  36.797  24.013
2245.20  36.861  24.013
2245.70  36.861  24.013
2246.20  36.861  24.013
2246.70  36.861  24.043
2247.20  36.797  24.013
2247.70  36.797  24.013
2248.20  36.797  24.043
2248.70  36.861  24.013
2249.20  36.797  24.013
2249.70  36.797  24.043
2250.20  36.797  24.074
2250.70  36.733  24.043
2251.20  36.861  23.951
2251.70  36.861  23.982
2252.20  36.797  24.013
2252.70  36.861  24.013
2253.20  36.797  23.982
2253.70  36.861  24.043
2254.20  36.797  24.013
2254.70  36.797  24.013
2255.20  36.797  24.013
2255.70  36.861  23.982
2256.20  36.797  24.013
2256.70  36.861  24.013
2257.20  36.797  24.013
2257.70  36.733  24.013
2258.20  36.797  24.043
2258.70  36.733  24.013
2259.20  36.733  24.043
2259.70  36.925  24.013
2260.20  36.861  24.074
2260.70  36.797  24.013
2261.20  36.861  24.013
2261.70  36.861  24.013
2262.20  36.925  23.982
2262.70  36.797  24.013
2263.20  36.797  24.013
2263.70  36.861  24.043
2264.20  36.733  24.013
2264.70  36.797  24.013
2265.20  36.797  24.074
2265.70  36.861  24.013
2266.20  36.797  24.013
2266.70  36.797  24.013
2267.20  36.861  24.013
2267.70  36.797  24.013
2268.20  36.861  24.013
2268.70  36.797  23.982
2269.20  36.861  24.013
2269.70  36.733  23.982
2270.20  36.861  23.951
2270.70  36.797  24.013
2271.20  36.797  24.043
2271.70  36.797  24.043
2272.20  36.861  24.013
2272.70  36.861  24.013
2273.20  36.797  24.043
2273.70  36.925  24.013
2274.20  36.797  24.013
2274.70  36.861  24.043
2275.20  36.797  24.013
2275.70  36.861  24.013
2276.20  36.861  24.013
2276.70  36.733  24.013
2277.20  36.861  24.013
2277.70  36.861  24.013
2278.20  36.797  24.013
2278.70  36.861  24.043
2279.20  36.797  24.043
2279.70  36.797  24.013
2280.20  36.861  23.982
2280.70  36.861  24.013
2281.20  36.797  24.074
2281.70  36.797  24.043
2282.20  36.925  24.013
2282.70  36.797  24.043
2283.20  36.861  24.013
2283.70  36.797  24.074
2284.20  36.797  24.013
2284.70  36.797  24.013
2285.20  36.797  24.013
2285.70  36.797  23.982
2286.20  36.797  24.013
2286.70  36.861  24.043
2287.20  36.797  24.013
2287.70  36.797  24.013
2288.20  36.797  24.013
2288.70  36.733  24.013
2289.20  36.797  23.982
2289.70  36.797  24.013
2290.20  36.797  23.982
2290.70  36.797  24.013
2291.20  36.861  24.043
2291.70  36.861  24.013
2292.20  36.861  24.013
2292.70  36.861  24.013
2293.20  37.053  24.043
2293.70  36.861  24.013
2294.20  36.797  24.043
2294.70  36.861  23.982
2295.20  36.861  24.043
2295.70  36.861  24.013
2296.20  36.861  24.013
2296.70  36.861  24.043
2297.20  36.797  24.013
2297.70  36.797  24.043
2298.20  36.861  24.013
2298.70  36.797  24.043
2299.20  36.797  24.043
2299.70  36.797  24.043
2300.20  36.861  24.043
2300.70  36.925  24.043
2301.20  36.925  24.013
2301.70  36.797  24.043
2302.20  36.861  24.013
2302.70  36.861  23.982
2303.20  36.861  24.013
2303.70  36.861  24.013
2304.20  36.861  24.013
2304.70  36.925  24.043
2305.20  36.797  24.013
2305.70  36.797  24.013
2306.20  36.861  24.013
2306.70  36.797  24.013
2307.20  36.861  24.043
2307.70  36.797  24.013
2308.20  36.861  24.013
2308.70  36.925  24.043
2309.20  36.925  24.013
2309.70  36.925  24.013
2310.20  36.861  24.074
2310.70  36.925  24.043
2311.20  36.925  24.013
2311.70  36.861  24.043
2312.20  36.861  24.013
2312.70  36.925  24.043
2313.20  36.925  24.013
2313.70  36.797  24.074
2314.20  36.925  24.013
2314.70  36.925  24.013
2315.20  36.861  24.013
2315.70  36.925  24.105
2316.20  36.733  24.043
2316.70  36.797  24.013
2317.20  36.861  24.043
2317.70  36.925  24.043
2318.20  36.861  24.074
2318.70  36.861  24.043
2319.20  36.861  24.043
2319.70  36.733  24.013
2320.20  36.925  24.013
2320.70  36.925  24.043
2321.20  36.797  23.982
2321.71  36.989  24.013
2322.21  36.861  24.013
2322.71  36.925  24.013
2323.21  36.861  24.043
2323.71  36.861  24.043
2324.21  36.925  24.013
2324.71  36.861  24.043
2325.21  36.797  24.043
2325.71  36.797  24.043
2326.21  36.861  24.074
2326.71  36.861  24.074
2327.21  36.861  24.013
2327.71  36.861  24.013
2328.21  36.925  24.013
2328.71  36.861  24.043
2329.21  36.861  24.043
2329.71  36.861  24.013
2330.21  36.861  23.982
2330.71  36.861  24.043
2331.21  36.925  23.982
2331.71  36.925  24.043
2332.21  36.861  24.043
2332.71  36.861  24.013
2333.21  36.861  24.043
2333.71  36.925  23.982
2334.21  36.797  24.043
2334.71  36.925  24.013
2335.21  36.861  24.013
2335.71  36.925  24.043
2336.21  36.861  24.043
2336.71  36.989  24.043
2337.21  36.925  24.043
2337.71  36.925  24.013
2338.21  36.861  24.013
2338.71  36.861  24.043
2339.21  36.861  24.043
2339.71  36.797  24.043
2340.21  36.925  24.043
2340.71  36.925  24.043
2341.21  36.861  24.074
2341.71  36.925  24.043
2342.21  36.861  24.043
2342.71  36.861  24.043
2343.21  36.925  24.013
2343.71  36.925  24.043
2344.21  36.861  24.043
2344.71  36.861  24.013
2345.21  36.861  24.043
2345.71  36.925  24.043
2346.21  36.925  24.043
2346.71  36.861  24.043
2347.21  36.861  24.013
2347.71  36.861  24.043
2348.21  36.925  24.013
2348.71  36.989  24.043
2349.21  36.925  24.043
2349.71  36.861  24.043
2350.21  36.925  24.043
2350.71  36.989  24.043
2351.21  36.861  24.074
2351.71  36.797  24.043
2352.21  36.925  24.013
2352.71  36.925  24.043
2353.21  36.861  24.074
2353.71  36.989  24.074
2354.21  36.861  24.043
2354.71  36.925  24.043
2355.21  36.861  24.043
2355.71  36.797  24.013
2356.21  36.861  24.013
2356.71  36.925  24.043
2357.21  36.861  24.043
2357.71  36.861  23.982
2358.21  36.925  24.013
2358.71  36.925  24.043
2359.21  36.925  24.043
2359.71  36.925  24.043
2360.21  36.861  24.043
2360.71  36.797  24.013
2361.21  36.925  24.043
2361.71  36.797  24.043
2362.21  36.925  24.013
2362.71  36.861  24.013
2363.21  36.989  24.043
2363.71  36.925  24.043
2364.21  36.797  24.043
2364.71  36.925  24.043
2365.21  36.925  24.043
2365.71  36.989  24.105
2366.21  36.925  24.043
2366.71  36.861  24.013
2367.21  36.925  24.043
2367.71  36.925  24.043
2368.21  36.925  24.013
2368.71  36.861  24.074
2369.21  36.925  23.982
2369.71  36.861  24.043
2370.21  36.861  24.043
2370.71  36.925  24.043
2371.21  36.861  24.043
2371.71  36.925  23.982
2372.21  36.861  24.043
2372.71  36.861  24.013
2373.21  36.733  24.013
2373.71  36.861  23.982
2374.21  36.925  24.043
2374.71  36.861  24.013
2375.21  36.861  24.043
2375.71  36.861  24.043
2376.21  36.861  24.043
2376.71  36.989  24.013
2377.21  36.925  24.043
2377.71  36.925  24.043
2378.21  36.925  24.043
2378.71  36.925  24.013
2379.21  36.861  24.013
2379.71  36.925  24.043
2380.21  36.861  24.013
2380.71  36.861  24.043
2381.21  36.989  24.043
2381.71  36.925  24.043
2382.21  36.861  24.074
2382.71  36.925  24.013
2383.21  36.861  24.013
2383.71  36.989  24.074
2384.21  36.925  24.043
2384.71  36.989  24.043
2385.21  36.925  24.074
2385.71  36.861  24.074
2386.21  36.925  23.982
2386.71  36.861  24.043
2387.21  36.989  24.013
2387.71  37.117  24.074
2388.21  36.797  24.074
2388.71  36.925  24.013
2389.21  36.925  24.013
2389.71  36.925  24.043
2390.21  36.925  24.043
2390.71  36.861  24.043
2391.21  36.861  24.074
2391.71  36.925  24.043
2392.21  36.861  24.043
2392.71  36.925  24.043
2393.21  36.797  24.074
2393.71  36.989  24.043
2394.21  36.925  24.043
2394.71  36.925  24.074
2395.21  36.925  24.074
2395.71  36.925  24.043
2396.21  36.861  24.043
2396.71  36.925  24.074
2397.21  36.989  24.013
2397.71  36.861  24.074
2398.21  36.925  24.043
2398.71  36.925  24.074
2399.21  36.925  24.043
2399.71  36.925  24.074
2400.21  36.861  24.074
2400.71  36.925  24.013
2401.21  36.925  24.043
2401.71  36.925  24.105
2402.21  36.925  24.043
2402.71  36.989  24.043
2403.21  36.861  24.043
2403.71  36.925  24.074
2404.21  36.925  24.043
2404.71  36.925  24.043
2405.21  36.861  24.043
2405.71  36.925  24.043
2406.21  36.989  24.043
2406.71  36.925  24.043
2407.21  36.989  24.043
2407.71  36.861  24.074
2408.21  36.861  24.074
2408.71  36.925  24.043
2409.21  36.925  24.074
2409.71  36.925  24.043
2410.21  36.925  24.043
2410.71  36.925  24.043
2411.21  36.861  24.074
2411.71  36.925  24.043
2412.21  36.925  24.043
2412.71  36.925  24.043
2413.21  36.925  24.043
2413.71  36.861  24.043
2414.21  36.989  24.043
2414.71  36.989  24.074
2415.21  36.925  24.043
2415.71  36.925  24.043
2416.21  36.925  24.043
2416.71  36.925  24.043
2417.21  36.861  24.043
2417.71  36.989  24.043
2418.21  36.925  24.074
2418.71  36.861  24.043
2419.21  36.861  24.043
2419.71  36.861  24.043
2420.21  36.925  24.043
2420.71  36.925  24.074
2421.21  36.925  24.043
2421.71  36.989  24.043
2422.21  36.925  24.043
2422.71  36.925  24.043
2423.21  37.053  24.074
2423.72  36.925  24.043
2424.22  36.925  24.074
2424.72  36.861  24.043
2425.22  36.925  24.013
2425.72  36.925  24.074
2426.22  36.925  24.043
2426.72  36.989  24.013
2427.22  36.925  24.074
2427.72  37.053  24.043
2428.22  36.861  24.074
2428.72  36.925  24.043
2429.22  36.989  24.043
2429.72  36.925  24.043
2430.22  36.925  24.043
2430.72  36.925  24.074
2431.22  36.861  24.043
2431.72  36.925  24.043
2432.22  36.925  24.074
2432.72  37.053  24.074
2433.22  36.925  24.043
2433.72  36.925  24.043
2434.22  36.925  24.013
2434.72  36.925  24.074
2435.22  36.925  24.043
2435.72  36.989  24.043
2436.22  36.925  24.074
2436.72  36.989  24.043
2437.22  36.861  23.982
2437.72  36.925  24.043
2438.22  37.117  24.043
2438.72  36.989  24.074
2439.22  36.925  24.043
2439.72  36.925  24.074
2440.22  36.925  24.043
2440.72  36.925  24.074
2441.22  36.989  24.074
2441.72  36.989  24.043
2442.22  36.989  24.043
2442.72  36.989  24.013
2443.22  36.989  24.043
2443.72  36.989  23.982
2444.22  36.989  24.074
2444.72  37.053  24.043
2445.22  36.989  24.043
2445.72  36.925  24.043
2446.22  36.989  24.136
2446.72  36.861  24.074
2447.22  36.925  24.013
2447.72  36.925  24.043
2448.22  36.989  24.043
2448.72  36.925  24.013
2449.22  36.925  24.043
2449.72  36.925  24.043
2450.22  36.925  24.043
2450.72  36.989  24.013
2451.22  36.989  24.043
2451.72  36.925  24.043
2452.22  36.989  24.074
2452.72  36.989  24.074
2453.22  36.989  24.043
2453.72  37.117  24.043
2454.22  36.989  24.043
2454.72  36.925  24.043
2455.22  36.989  24.074
2455.72  36.925  24.074
2456.22  36.989  24.043
2456.72  37.053  24.043
2457.22  36.989  24.074
2457.72  36.989  24.013
2458.22  36.989  24.074
2458.72  36.925  24.043
2459.22  36.925  24.043
2459.72  37.053  24.043
2460.22  36.989  24.043
2460.72  36.925  24.074
2461.22  36.989  24.074
2461.72  36.989  24.043
2462.22  36.989  24.043
2462.72  36.925  24.043
2463.22  36.925  24.043
2463.72  36.989  24.074
2464.22  36.989  24.074
2464.72  36.989  24.074
2465.22  36.989  24.074
2465.72  36.989  24.013
2466.22  36.925  24.074
2466.72  36.989  24.074
2467.22  37.053  24.043
2467.72  36.989  24.074
2468.22  36.989  24.043
2468.72  36.989  24.043
2469.22  36.989  24.043
2469.72  36.989  24.074
2470.22  36.925  24.013
2470.72  36.925  24.074
2471.22  36.989  24.043
2471.72  36.989  24.074
2472.22  36.989  24.043
2472.72  36.989  24.074
2473.22  37.053  24.074
2473.72  36.989  24.074
2474.22  36.989  24.074
2474.72  36.925  24.043
2475.22  36.925  24.043
2475.72  36.989  24.043
2476.22  36.861  24.074
2476.72  37.181  24.043
2477.22  36.989  24.043
2477.72  37.053  24.074
2478.22  36.989  24.105
2478.72  37.053  24.043
2479.22  36.989  24.074
2479.72  36.861  24.074
2480.22  36.989  24.043
2480.72  36.989  24.043
2481.22  36.989  24.043
2481.72  36.989  24.043
2482.22  36.989  24.105
2482.72  36.989  24.074
2483.22  37.053  24.074
2483.72  36.989  24.074
2484.22  36.925  24.013
2484.72  36.989  24.043
2485.22  36.989  24.043
2485.72  36.989  24.043
2486.22  37.053  24.074
2486.72  36.989  24.105
2487.22  36.989  24.043
2487.72  36.989  24.043
2488.22  37.053  24.043
2488.72  37.053  24.043
2489.22  36.925  24.074
2489.72  37.053  24.043
2490.22  36.989  24.074
2490.72  36.989  24.043
2491.22  36.925  24.043
2491.72  36.989  24.074
2492.22  36.989  24.043
2492.72  37.053  24.043
2493.22  36.989  24.043
2493.72  36.989  24.074
2494.22  36.989  24.074
2494.72  36.861  24.074
2495.22  36.989  24.074
2495.72  37.053  24.043
2496.22  36.989  24.074
2496.72  36.989  24.043
2497.22  36.989  24.074
2497.72  36.989  24.105
2498.22  36.989  24.043
2498.72  36.989  24.013
2499.22  37.053  24.074
2499.72  36.925  24.074
2500.22  36.925  24.074
2500.72  36.925  24.074
2501.22  36.989  24.013
2501.72  37.053  24.074
