   2.00  23.226  23.119
   2.50  23.226  23.119
   3.00  23.226  23.150
   3.50  23.252  23.150
   5.12  23.278  23.150
   5.62  23.226  23.150
   6.12  23.252  23.150
   6.62  23.252  23.119
   7.12  23.252  23.119
   7.62  23.252  23.119
   8.12  23.252  23.119
   8.62  23.252  23.088
   9.12  23.226  23.150
   9.62  23.252  23.119
  10.12  23.252  23.119
  10.62  23.252  23.119
  11.12  23.278  23.119
  11.62  23.278  23.119
  12.12  23.226  23.150
  12.62  23.252  23.119
  13.12  23.252  23.119
  13.62  23.252  23.119
  14.12  23.252  23.119
  14.62  23.199  23.119
  15.12  23.226  23.119
  15.62  23.278  23.119
  16.12  23.252  23.181
  16.62  23.252  23.088
  17.12  23.252  23.088
  17.62  23.252  23.119
  18.12  23.252  23.119
  18.62  23.252  23.088
  19.12  23.226  23.150
  19.62  23.252  23.150
  20.12  23.226  23.119
  20.62  23.226  23.119
  21.12  23.252  23.119
  21.62  23.226  23.088
  22.12  23.252  23.119
  22.62  23.226  23.119
  23.12  23.252  23.119
  23.62  23.252  23.150
  24.12  23.252  23.088
  24.62  23.226  23.150
  25.12  23.252  23.119
  25.62  23.252  23.119
  26.12  23.252  23.119
  26.62  23.252  23.119
  27.12  23.226  23.119
  27.62  23.278  23.150
  28.12  23.278  23.119
  28.62  23.278  23.119
  29.12  23.278  23.119
  29.62  23.278  23.119
  30.12  23.304  23.119
  30.62  23.226  23.119
  31.12  23.304  23.181
  31.62  23.304  23.119
  32.12  23.304  23.119
  32.62  23.304  23.150
  33.12  23.304  23.119
  33.62  23.304  23.119
  34.12  23.304  23.150
  34.62  23.330  23.150
  35.12  23.278  23.150
  35.62  23.304  23.150
  36.12  23.304  23.150
  36.62  23.330  23.150
  37.12  23.330  23.150
  37.62  23.330  23.119
  38.12  23.304  23.119
  38.62  23.304  23.119
  39.12  23.330  23.119
  39.62  23.330  23.119
  40.12  23.304  23.150
  40.62  23.330  23.119
  41.12  23.356  23.150
  41.62  23.330  23.088
  42.12  23.356  23.119
  42.62  23.330  23.119
  43.12  23.356  23.150
  43.62  23.356  23.119
  44.12  23.356  23.150
  44.62  23.461  23.150
  45.12  23.356  23.119
  45.62  23.382  23.119
  46.12  23.356  23.119
  46.62  23.356  23.119
  47.12  23.408  23.119
  47.62  23.382  23.119
  48.12  23.382  23.119
  48.62  23.356  23.150
  49.12  23.408  23.119
  49.63  23.408  23.150
  50.13  23.408  23.119
  50.63  23.408  23.150
  51.13  23.434  23.150
  51.63  23.408  23.119
  52.13  23.434  23.119
  52.63  23.408  23.119
  53.13  23.408  23.119
  53.63  23.408  23.119
  54.13  23.461  23.119
  54.63  23.434  23.150
  55.13  23.408  23.119
  55.63  23.434  23.150
  56.13  23.408  23.150
  56.63  23.434  23.119
  57.13  23.434  23.119
  57.63  23.461  23.119
  58.13  23.434  23.119
  58.63  23.461  23.150
  59.13  23.461  23.150
  59.63  23.434  23.088
  60.13  23.461  23.150
  60.63  23.461  23.150
  61.13  23.461  23.119
  61.63  23.434  23.119
  62.13  23.487  23.119
  62.63  23.434  23.088
  63.13  23.461  23.150
  63.63  23.487  23.119
  64.13  23.487  23.119
  64.63  23.461  23.058
  65.13  23.487  23.119
  65.63  23.487  23.119
  66.13  23.487  23.119
  66.63  23.539  23.119
  67.13  23.461  23.119
  67.63  23.487  23.119
  68.13  23.461  23.119
  68.63  23.487  23.119
  69.13  23.513  23.119
  69.63  23.539  23.119
  70.13  23.513  23.119
  70.63  23.539  23.088
  71.13  23.513  23.088
  71.63  23.513  23.119
  72.13  23.539  23.150
  72.63  23.513  23.150
  73.13  23.487  23.150
  73.63  23.539  23.181
  74.13  23.539  23.150
  74.63  23.539  23.150
  75.13  23.539  23.150
  75.63  23.565  23.181
  76.13  23.565  23.150
  76.63  23.513  23.119
  77.13  23.539  23.119
  77.63  23.565  23.150
  78.13  23.565  23.119
  78.63  23.591  23.088
  79.13  23.591  23.119
  79.63  23.591  23.119
  80.13  23.591  23.088
  80.63  23.617  23.150
  81.13  23.617  23.119
  81.63  23.591  23.119
  82.13  23.617  23.181
  82.63  23.591  23.181
  83.13  23.617  23.150
  83.63  23.643  23.150
  84.13  23.643  23.150
  84.63  23.617  23.088
  85.13  23.591  23.119
  85.63  23.591  23.088
  86.13  23.617  23.119
  86.63  23.591  23.119
  87.13  23.643  23.150
  87.63  23.643  23.150
  88.13  23.643  23.150
  88.63  23.643  23.150
  89.13  23.617  23.212
  89.63  23.617  23.119
  90.13  23.643  23.150
  90.63  23.643  23.088
  91.13  23.670  23.150
  91.63  23.643  23.119
  92.13  23.643  23.150
  92.63  23.670  23.119
  93.13  23.643  23.119
  93.63  23.670  23.150
  94.13  23.670  23.119
  94.63  23.722  23.119
  95.13  23.670  23.119
  95.63  23.696  23.181
  96.13  23.670  23.119
  96.63  23.696  23.150
  97.13  23.643  23.088
  97.63  23.722  23.150
  98.13  23.696  23.119
  98.63  23.670  23.150
  99.13  23.722  23.119
  99.63  23.696  23.119
 100.13  23.722  23.150
 100.63  23.696  23.150
 101.13  23.774  23.119
 101.63  23.696  23.119
 102.13  23.722  23.150
 102.63  23.722  23.088
 103.13  23.774  23.119
 103.63  23.722  23.119
 104.13  23.748  23.150
 104.63  23.748  23.119
 105.13  23.748  23.119
 105.63  23.774  23.119
 106.13  23.774  23.119
 106.63  23.748  23.119
 107.13  23.748  23.119
 107.63  23.748  23.150
 108.13  23.774  23.119
 108.63  23.774  23.119
 109.13  23.774  23.150
 109.63  23.774  23.088
 110.13  23.748  23.119
 110.63  23.774  23.150
 111.13  23.800  23.181
 111.63  23.774  23.150
 112.13  23.800  23.119
 112.63  23.800  23.150
 113.13  23.774  23.119
 113.63  23.800  23.150
 114.13  23.826  23.119
 114.63  23.800  23.150
 115.13  23.800  23.181
 115.63  23.800  23.119
 116.13  23.800  23.119
 116.63  23.826  23.119
 117.13  23.852  23.150
 117.63  23.826  23.150
 118.13  23.826  23.150
 118.63  23.826  23.150
 119.13  23.852  23.150
 119.63  23.826  23.119
 120.13  23.852  23.150
 120.63  23.826  23.119
 121.13  23.826  23.150
 121.63  23.826  23.150
 122.13  23.852  23.150
 122.63  23.852  23.150
 123.13  23.878  23.150
 123.63  23.852  23.150
 124.13  23.826  23.119
 124.63  23.878  23.181
 125.13  23.878  23.150
 125.63  23.878  23.119
 126.13  23.878  23.119
 126.63  23.905  23.181
 127.13  23.878  23.181
 127.63  23.878  23.150
 128.13  23.878  23.119
 128.63  23.905  23.181
 129.13  23.878  23.119
 129.63  23.878  23.150
 130.13  23.905  23.119
 130.63  23.905  23.150
 131.13  23.905  23.150
 131.63  23.905  23.119
 132.13  23.931  23.150
 132.63  23.905  23.119
 133.13  23.931  23.150
 133.63  23.931  23.150
 134.13  23.931  23.150
 134.63  23.931  23.119
 135.13  23.905  23.150
 135.63  23.957  23.150
 136.13  23.931  23.150
 136.63  23.957  23.119
 137.13  23.957  23.150
 137.63  23.931  23.119
 138.13  23.957  23.150
 138.63  23.957  23.119
 139.13  23.931  23.119
 139.63  23.957  23.119
 140.13  23.957  23.119
 140.63  23.983  23.150
 141.13  23.957  23.119
 141.63  23.957  23.150
 142.13  23.983  23.088
 142.63  23.983  23.119
 143.13  23.957  23.150
 143.63  23.957  23.088
 144.13  23.983  23.150
 144.63  23.983  23.119
 145.13  23.983  23.150
 145.63  23.983  23.150
 146.13  24.009  23.150
 146.63  24.009  23.150
 147.13  23.983  23.150
 147.63  23.983  23.150
 148.13  23.983  23.119
 148.63  23.983  23.150
 149.13  24.009  23.181
 149.63  24.009  23.119
 150.13  24.009  23.119
 150.63  24.009  23.119
 151.13  24.035  23.150
 151.63  24.009  23.150
 152.13  24.009  23.150
 152.63  24.009  23.119
 153.13  24.035  23.150
 153.63  24.035  23.119
 154.13  24.035  23.088
 154.63  24.035  23.150
 155.13  24.035  23.119
 155.63  24.035  23.150
 156.13  24.061  23.150
 156.63  24.035  23.088
 157.13  24.035  23.088
 157.63  24.061  23.150
 158.13  24.061  23.150
 158.63  24.113  23.150
 159.13  24.035  23.150
 159.63  24.061  23.150
 160.13  24.061  23.119
 160.63  24.087  23.119
 161.13  24.035  23.119
 161.63  24.087  23.119
 162.13  24.061  23.150
 162.64  24.061  23.119
 163.14  24.087  23.150
 163.64  24.061  23.150
 164.14  24.087  23.119
 164.64  24.061  23.119
 165.14  24.087  23.119
 165.64  24.087  23.119
 166.14  24.113  23.150
 166.64  24.087  23.119
 167.14  24.087  23.150
 167.64  24.087  23.150
 168.14  24.113  23.150
 168.64  24.113  23.150
 169.14  24.087  23.119
 169.64  24.113  23.181
 170.14  24.113  23.119
 170.64  24.113  23.150
 171.14  24.140  23.150
 171.64  24.113  23.119
 172.14  24.113  23.181
 172.64  24.140  23.150
 173.14  24.166  23.150
 173.64  24.192  23.150
 174.14  24.192  23.150
 174.64  24.140  23.150
 175.14  24.140  23.119
 175.64  24.140  23.150
 176.14  24.140  23.181
 176.64  24.166  23.150
 177.14  24.140  23.150
 177.64  24.166  23.181
 178.14  24.192  23.119
 178.64  24.140  23.150
 179.14  24.166  23.119
 179.64  24.140  23.150
 180.14  24.140  23.150
 180.64  24.140  23.181
 181.14  24.166  23.150
 181.64  24.218  23.088
 182.14  24.166  23.150
 182.64  24.166  23.181
 183.14  24.192  23.119
 183.64  24.192  23.150
 184.14  24.192  23.150
 184.64  24.166  23.150
 185.14  24.192  23.119
 185.64  24.192  23.119
 186.14  24.192  23.181
 186.64  24.192  23.150
 187.14  24.218  23.181
 187.64  24.218  23.150
 188.14  24.218  23.150
 188.64  24.218  23.119
 189.14  24.218  23.119
 189.64  24.192  23.119
 190.14  24.218  23.119
 190.64  24.218  23.150
 191.14  24.218  23.119
 191.64  24.218  23.119
 192.14  24.192  23.150
 192.64  24.244  23.150
 193.14  24.218  23.150
 193.64  24.218  23.150
 194.14  24.244  23.150
 194.64  24.244  23.150
 195.14  24.244  23.119
 195.64  24.244  23.119
 196.14  24.296  23.150
 196.64  24.270  23.119
 197.14  24.270  23.119
 197.64  24.244  23.150
 198.14  24.244  23.181
 198.64  24.270  23.150
 199.14  24.270  23.119
 199.64  24.244  23.181
 200.14  24.270  23.150
 200.64  24.270  23.119
 201.14  24.270  23.181
 201.64  24.270  23.150
 202.14  24.296  23.119
 202.64  24.296  23.150
 203.14  24.270  23.150
 203.64  24.296  23.150
 204.14  24.296  23.181
 204.64  24.322  23.150
 205.14  24.322  23.150
 205.64  24.270  23.150
 206.14  24.296  23.150
 206.64  24.322  23.150
 207.14  24.296  23.150
 207.64  24.322  23.150
 208.14  24.296  23.181
 208.64  24.322  23.150
 209.14  24.322  23.150
 209.64  24.348  23.150
 210.14  24.322  23.150
 210.64  24.322  23.119
 211.14  24.322  23.150
 211.64  24.348  23.150
 212.14  24.322  23.150
 212.64  24.348  23.119
 213.14  24.322  23.181
 213.64  24.322  23.150
 214.14  24.348  23.088
 214.64  24.322  23.150
 215.14  24.348  23.150
 215.64  24.348  23.150
 216.14  24.375  23.150
 216.64  24.348  23.150
 217.14  24.348  23.150
 217.64  24.375  23.181
 218.14  24.322  23.150
 218.64  24.375  23.150
 219.14  24.375  23.119
 219.64  24.348  23.150
 220.14  24.401  23.119
 220.64  24.375  23.181
 221.14  24.375  23.150
 221.64  24.348  23.119
 222.14  24.375  23.119
 222.64  24.401  23.150
 223.14  24.401  23.181
 223.64  24.375  23.150
 224.14  24.375  23.150
 224.64  24.375  23.150
 225.14  24.401  23.181
 225.64  24.401  23.150
 226.14  24.401  23.150
 226.64  24.375  23.150
 227.14  24.401  23.150
 227.64  24.401  23.150
 228.14  24.427  23.119
 228.64  24.401  23.150
 229.14  24.427  23.150
 229.64  24.401  23.150
 230.14  24.401  23.150
 230.64  24.401  23.181
 231.14  24.427  23.119
 231.64  24.401  23.150
 232.14  24.427  23.150
 232.64  24.427  23.150
 233.14  24.401  23.150
 233.64  24.427  23.119
 234.14  24.453  23.119
 234.64  24.427  23.150
 235.14  24.401  23.150
 235.64  24.427  23.150
 236.14  24.453  23.181
 236.64  24.401  23.150
 237.14  24.401  23.150
 237.64  24.427  23.150
 238.14  24.453  23.150
 238.64  24.453  23.181
 239.14  24.453  23.150
 239.64  24.479  23.150
 240.14  24.453  23.181
 240.64  24.479  23.119
 241.14  24.453  23.150
 241.64  24.453  23.181
 242.14  24.453  23.119
 242.64  24.453  23.150
 243.14  24.479  23.150
 243.64  24.479  23.181
 244.14  24.479  23.119
 244.64  24.453  23.181
 245.14  24.479  23.119
 245.64  24.479  23.119
 246.14  24.505  23.181
 246.64  24.453  23.150
 247.14  24.479  23.119
 247.64  24.479  23.150
 248.14  24.505  23.181
 248.64  24.453  23.150
 249.14  24.505  23.150
 249.64  24.479  23.150
 250.14  24.479  23.119
 250.64  24.505  23.150
 251.14  24.505  23.150
 251.64  24.505  23.150
 252.14  24.505  23.150
 252.64  24.479  23.150
 253.14  24.505  23.119
 253.64  24.505  23.150
 254.14  24.505  23.119
 254.64  24.531  23.150
 255.14  24.505  23.212
 255.64  24.531  23.150
 256.14  24.505  23.119
 256.64  24.505  23.150
 257.14  24.531  23.150
 257.64  24.557  23.150
 258.14  24.531  23.181
 258.64  24.531  23.150
 259.14  24.531  23.150
 259.64  24.531  23.150
 260.14  24.531  23.181
 260.64  24.557  23.150
 261.14  24.610  23.150
 261.64  24.557  23.181
 262.14  24.557  23.119
 262.64  24.531  23.150
 263.14  24.531  23.150
 263.64  24.557  23.150
 264.14  24.610  23.150
 264.64  24.583  23.150
 265.14  24.557  23.181
 265.64  24.557  23.181
 266.14  24.557  23.150
 266.64  24.557  23.150
 267.14  24.557  23.119
 267.64  24.583  23.150
 268.14  24.583  23.150
 268.64  24.557  23.150
 269.14  24.583  23.150
 269.64  24.583  23.150
 270.14  24.557  23.150
 270.64  24.557  23.150
 271.14  24.583  23.119
 271.64  24.583  23.150
 272.14  24.583  23.181
 272.64  24.557  23.150
 273.14  24.583  23.150
 273.64  24.557  23.150
 274.14  24.583  23.150
 274.64  24.610  23.150
 275.14  24.583  23.150
 275.64  24.610  23.150
 276.15  24.610  23.150
 276.65  24.636  23.150
 277.15  24.583  23.150
 277.65  24.610  23.150
 278.15  24.636  23.150
 278.65  24.610  23.181
 279.15  24.636  23.150
 279.65  24.583  23.181
 280.15  24.583  23.212
 280.65  24.636  23.181
 281.15  24.610  23.150
 281.65  24.636  23.150
 282.15  24.636  23.181
 282.65  24.636  23.212
 283.15  24.636  23.181
 283.65  24.636  23.181
 284.15  24.636  23.150
 284.65  24.610  23.150
 285.15  24.636  23.181
 285.65  24.662  23.150
 286.15  24.662  23.150
 286.65  24.636  23.181
 287.15  24.636  23.150
 287.65  24.610  23.150
 288.15  24.636  23.181
 288.65  24.636  23.150
 289.15  24.636  23.181
 289.65  24.636  23.181
 290.15  24.688  23.150
 290.65  24.662  23.181
 291.15  24.662  23.150
 291.65  24.662  23.181
 292.15  24.662  23.150
 292.65  24.610  23.150
 293.15  24.662  23.119
 293.65  24.662  23.181
 294.15  24.688  23.181
 294.65  24.688  23.150
 295.15  24.662  23.150
 295.65  24.688  23.150
 296.15  24.662  23.150
 296.65  24.688  23.150
 297.15  24.688  23.150
 297.65  24.714  23.150
 298.15  24.714  23.181
 298.65  24.662  23.150
 299.15  24.688  23.119
 299.65  24.688  23.150
 300.15  24.714  23.181
 300.65  24.688  23.150
 301.15  24.688  23.181
 301.65  24.688  23.150
 302.15  24.688  23.150
 302.65  24.688  23.181
 303.15  24.688  23.181
 303.65  24.714  23.150
 304.15  24.714  23.150
 304.65  24.714  23.150
 305.15  24.688  23.150
 305.65  24.714  23.181
 306.15  24.714  23.181
 306.65  24.688  23.150
 307.15  24.688  23.150
 307.65  24.714  23.150
 308.15  24.740  23.150
 308.65  24.688  23.181
 309.15  24.714  23.181
 309.65  24.740  23.181
 310.15  24.714  23.181
 310.65  24.740  23.119
 311.15  24.740  23.181
 311.65  24.766  23.150
 312.15  24.740  23.181
 312.65  24.740  23.181
 313.15  24.740  23.119
 313.65  24.740  23.150
 314.15  24.740  23.150
 314.65  24.740  23.181
 315.15  24.792  23.150
 315.65  24.740  23.181
 316.15  24.792  23.181
 316.65  24.766  23.181
 317.15  24.740  23.181
 317.65  24.740  23.181
 318.15  24.766  23.181
 318.65  24.766  23.181
 319.15  24.766  23.181
 319.65  24.766  23.181
 320.15  24.740  23.150
 320.65  24.766  23.150
 321.15  24.766  23.119
 321.65  24.766  23.181
 322.15  24.740  23.150
 322.65  24.766  23.119
 323.15  24.766  23.150
 323.65  24.766  23.181
 324.15  24.819  23.181
 324.65  24.792  23.150
 325.15  24.792  23.150
 325.65  24.792  23.150
 326.15  24.740  23.150
 326.65  24.819  23.181
 327.15  24.766  23.181
 327.65  24.792  23.181
 328.15  24.792  23.150
 328.65  24.819  23.150
 329.15  24.792  23.150
 329.65  24.792  23.212
 330.15  24.819  23.181
 330.65  24.819  23.181
 331.15  24.845  23.150
 331.65  24.792  23.150
 332.15  24.792  23.150
 332.65  24.819  23.150
 333.15  24.792  23.212
 333.65  24.792  23.181
 334.15  24.766  23.181
 334.65  24.792  23.150
 335.15  24.819  23.150
 335.65  24.819  23.150
 336.15  24.819  23.119
 336.65  24.845  23.181
 337.15  24.845  23.181
 337.65  24.845  23.181
 338.15  24.819  23.088
 338.65  24.819  23.150
 339.15  24.819  23.150
 339.65  24.792  23.119
 340.15  24.871  23.181
 340.65  24.845  23.150
 341.15  24.819  23.212
 341.65  24.845  23.150
 342.15  24.819  23.181
 342.65  24.845  23.181
 343.15  24.845  23.150
 343.65  24.845  23.150
 344.15  24.871  23.150
 344.65  24.845  23.181
 345.15  24.871  23.150
 345.65  24.871  23.181
 346.15  24.845  23.150
 346.65  24.871  23.212
 347.15  24.897  23.150
 347.65  24.845  23.181
 348.15  24.897  23.181
 348.65  24.871  23.150
 349.15  24.897  23.181
 349.65  24.923  23.181
 350.15  24.871  23.181
 350.65  24.897  23.181
 351.15  24.871  23.181
 351.65  24.871  23.181
 352.15  24.871  23.150
 352.65  24.897  23.150
 353.15  24.897  23.181
 353.65  24.897  23.150
 354.15  24.871  23.181
 354.65  24.897  23.181
 355.15  24.923  23.181
 355.65  24.897  23.181
 356.15  24.897  23.150
 356.65  24.871  23.181
 357.15  24.897  23.181
 357.65  24.897  23.181
 358.15  24.897  23.212
 358.65  24.923  23.150
 359.15  24.897  23.181
 359.65  24.923  23.181
 360.15  24.871  23.212
 360.65  24.923  23.150
 361.15  24.923  23.150
 361.65  24.923  23.181
 362.15  24.949  23.150
 362.65  24.923  23.181
 363.15  24.897  23.119
 363.65  24.923  23.181
 364.15  24.923  23.181
 364.65  24.923  23.150
 365.15  24.923  23.150
 365.65  24.923  23.150
 366.15  24.923  23.150
 366.65  24.897  23.150
 367.15  24.923  23.181
 367.65  24.923  23.150
 368.15  24.923  23.119
 368.65  24.923  23.181
 369.15  24.923  23.181
 369.65  24.949  23.181
 370.15  24.975  23.181
 370.65  24.923  23.212
 371.15  24.949  23.181
 371.65  24.923  23.181
 372.15  24.949  23.181
 372.65  24.949  23.150
 373.15  24.949  23.150
 373.65  24.949  23.181
 374.15  24.949  23.150
 374.65  24.949  23.181
 375.15  24.949  23.212
 375.65  24.949  23.181
 376.15  24.975  23.181
 376.65  24.975  23.181
 377.15  24.949  23.181
 377.65  24.949  23.181
 378.15  25.005  23.150
 378.65  25.114  23.181
 379.15  24.949  23.181
 379.65  24.975  23.150
 380.15  24.949  23.212
 380.65  25.005  23.212
 381.15  25.005  23.181
 381.65  24.975  23.150
 382.15  24.949  23.181
 382.65  24.975  23.150
 383.15  24.949  23.181
 383.65  24.975  23.150
 384.15  25.005  23.150
 384.65  25.005  23.119
 385.15  24.975  23.181
 385.65  24.975  23.181
 386.15  25.005  23.150
 386.65  25.114  23.212
 387.15  24.949  23.181
 387.65  25.222  23.181
 388.15  25.005  23.150
 388.65  24.975  23.181
 389.16  25.005  23.212
 389.66  25.005  23.150
 390.16  25.005  23.150
 390.66  25.005  23.150
 391.16  25.114  23.150
 391.66  25.005  23.181
 392.16  25.114  23.150
 392.66  25.005  23.181
 393.16  25.005  23.181
 393.66  25.005  23.150
 394.16  25.114  23.150
 394.66  25.005  23.150
 395.16  25.005  23.181
 395.66  25.114  23.212
 396.16  25.005  23.150
 396.66  25.114  23.181
 397.16  25.114  23.181
 397.66  25.114  23.150
 398.16  25.222  23.181
 398.66  25.222  23.150
 399.16  25.222  23.150
 399.66  25.114  23.181
 400.16  25.114  23.181
 400.66  25.114  23.181
 401.16  25.005  23.181
 401.66  25.222  23.150
 402.16  25.222  23.150
 402.66  25.114  23.181
 403.16  25.222  23.181
 403.66  25.114  23.181
 404.16  25.222  23.150
 404.66  25.222  23.181
 405.16  25.222  23.181
 405.66  25.222  23.181
 406.16  25.222  23.181
 406.66  25.114  23.181
 407.16  25.222  23.181
 407.66  25.222  23.212
 408.16  25.330  23.181
 408.66  25.330  23.181
 409.16  25.330  23.181
 409.66  25.330  23.181
 410.16  25.330  23.150
 410.66  25.330  23.181
 411.16  25.222  23.181
 411.66  25.330  23.181
 412.16  25.438  23.150
 412.66  25.222  23.181
 413.16  25.330  23.181
 413.66  25.330  23.181
 414.16  25.438  23.181
 414.66  25.330  23.181
 415.16  25.330  23.181
 415.66  25.330  23.150
 416.16  25.330  23.181
 416.66  25.330  23.212
 417.16  25.330  23.181
 417.66  25.222  23.212
 418.16  25.438  23.181
 418.66  25.438  23.181
 419.16  25.438  23.181
 419.66  25.438  23.150
 420.16  25.330  23.181
 420.66  25.438  23.181
 421.16  25.438  23.181
 421.66  25.438  23.212
 422.16  25.438  23.181
 422.66  25.330  23.150
 423.16  25.547  23.212
 423.66  25.438  23.181
 424.16  25.547  23.181
 424.66  25.438  23.150
 425.16  25.438  23.181
 425.66  25.438  23.181
 426.16  25.547  23.181
 426.66  25.438  23.242
 427.16  25.547  23.212
 427.66  25.547  23.181
 428.16  25.547  23.181
 428.66  25.438  23.242
 429.16  25.547  23.181
 429.66  25.547  23.150
 430.16  25.547  23.181
 430.66  25.547  23.181
 431.16  25.547  23.181
 431.66  25.547  23.150
 432.16  25.763  23.181
 432.66  25.547  23.181
 433.16  25.547  23.181
 433.66  25.547  23.181
 434.16  25.547  23.212
 434.66  25.655  23.212
 435.16  25.655  23.181
 435.66  25.655  23.150
 436.16  25.655  23.181
 436.66  25.547  23.181
 437.16  25.655  23.181
 437.66  25.438  23.181
 438.16  25.763  23.181
 438.66  25.655  23.181
 439.16  25.655  23.212
 439.66  25.655  23.181
 440.16  25.655  23.242
 440.66  25.655  23.150
 441.16  25.655  23.150
 441.66  25.655  23.181
 442.16  25.655  23.181
 442.66  25.763  23.212
 443.16  25.655  23.242
 443.66  25.655  23.181
 444.16  25.655  23.181
 444.66  25.763  23.242
 445.16  25.763  23.181
 445.66  25.763  23.181
 446.16  25.763  23.181
 446.66  25.763  23.181
 447.16  25.655  23.181
 447.66  25.763  23.181
 448.16  25.763  23.181
 448.66  25.763  23.181
 449.16  25.871  23.181
 449.66  25.763  23.212
 450.16  25.871  23.181
 450.66  25.655  23.181
 451.16  25.871  23.181
 451.66  25.871  23.181
 452.16  25.871  23.181
 452.66  25.763  23.181
 453.16  25.980  23.212
 453.66  25.871  23.150
 454.16  25.763  23.181
 454.66  25.871  23.181
 455.16  25.871  23.212
 455.66  25.763  23.181
 456.16  25.871  23.181
 456.66  25.871  23.181
 457.16  25.871  23.150
 457.66  25.871  23.181
 458.16  25.871  23.212
 458.66  25.763  23.212
 459.16  25.871  23.150
 459.66  25.871  23.150
 460.16  25.763  23.242
 460.66  25.871  23.181
 461.16  25.871  23.212
 461.66  25.980  23.181
 462.16  25.763  23.212
 462.66  25.871  23.212
 463.16  25.871  23.242
 463.66  25.763  23.212
 464.16  25.980  23.150
 464.66  26.088  23.212
 465.16  25.980  23.181
 465.66  25.980  23.212
 466.16  25.763  23.181
 466.66  25.980  23.181
 467.16  25.980  23.181
 467.66  25.980  23.181
 468.16  26.088  23.181
 468.66  25.980  23.212
 469.16  26.088  23.181
 469.66  25.871  23.212
 470.16  25.980  23.212
 470.66  26.196  23.150
 471.16  25.980  23.242
 471.66  26.088  23.181
 472.16  26.088  23.181
 472.66  26.088  23.181
 473.16  26.088  23.212
 473.66  26.196  23.181
 474.16  26.088  23.181
 474.66  25.871  23.181
 475.16  26.088  23.212
 475.66  25.980  23.212
 476.16  26.088  23.212
 476.66  26.196  23.150
 477.16  25.871  23.212
 477.66  26.196  23.212
 478.16  26.088  23.181
 478.66  25.980  23.212
 479.16  26.196  23.181
 479.66  26.088  23.181
 480.16  26.088  23.150
 480.66  26.196  23.181
 481.16  26.088  23.212
 481.66  26.088  23.181
 482.16  26.088  23.181
 482.66  26.196  23.181
 483.16  26.196  23.212
 483.66  26.088  23.181
 484.16  26.196  23.181
 484.66  26.088  23.150
 485.16  26.196  23.181
 485.66  26.196  23.181
 486.16  26.088  23.212
 486.66  26.196  23.212
 487.16  26.304  23.150
 487.66  26.413  23.181
 488.16  26.304  23.181
 488.66  26.304  23.212
 489.16  26.196  23.181
 489.66  26.196  23.242
 490.16  26.304  23.212
 490.66  26.196  23.181
 491.17  26.196  23.181
 491.67  26.196  23.212
 492.17  26.196  23.181
 492.67  26.196  23.212
 493.17  26.196  23.181
 493.67  26.196  23.181
 494.17  26.196  23.212
 494.67  26.196  23.181
 495.17  26.304  23.181
 495.67  26.088  23.212
 496.17  26.196  23.181
 496.67  26.304  23.181
 497.17  26.304  23.181
 497.67  26.304  23.212
 498.17  26.304  23.181
 498.67  26.304  23.212
 499.17  26.413  23.150
 499.67  26.304  23.181
 500.17  26.304  23.212
 500.67  26.304  23.242
 501.17  26.304  23.181
 501.67  26.304  23.212
 502.17  26.304  23.212
 502.67  26.413  23.181
 503.17  26.304  23.181
 503.67  26.304  23.212
 504.17  26.304  23.181
 504.67  26.413  23.181
 505.17  26.413  23.181
 505.67  26.521  23.181
 506.17  26.413  23.181
 506.67  26.413  23.181
 507.17  26.413  23.181
 507.67  26.521  23.181
 508.17  26.413  23.181
 508.67  26.413  23.212
 509.17  26.629  23.181
 509.67  26.521  23.181
 510.17  26.413  23.212
 510.67  26.413  23.181
 511.17  26.413  23.212
 511.67  26.413  23.212
 512.17  26.413  23.181
 512.67  26.413  23.181
 513.17  26.521  23.181
 513.67  26.413  23.212
 514.17  26.521  23.181
 514.67  26.629  23.181
 515.17  26.521  23.212
 515.67  26.521  23.150
 516.17  26.521  23.181
 516.67  26.629  23.212
 517.17  26.521  23.212
 517.67  26.629  23.181
 518.17  26.521  23.181
 518.67  26.629  23.181
 519.17  26.629  23.150
 519.67  26.521  23.150
 520.17  26.413  23.212
 520.67  26.521  23.212
 521.17  26.629  23.242
 521.67  26.413  23.181
 522.17  26.629  23.212
 522.67  26.737  23.181
 523.17  26.737  23.212
 523.67  26.521  23.242
 524.17  26.737  23.212
 524.67  26.629  23.242
 525.17  26.629  23.181
 525.67  26.737  23.181
 526.17  26.737  23.181
 526.67  26.629  23.212
 527.17  26.737  23.181
 527.67  26.629  23.212
 528.17  26.629  23.212
 528.67  26.629  23.212
 529.17  26.737  23.212
 529.67  26.629  23.212
 530.17  26.629  23.181
 530.67  26.629  23.181
 531.17  26.737  23.181
 531.67  26.737  23.242
 532.17  26.846  23.212
 532.67  26.629  23.212
 533.17  26.737  23.181
 533.67  26.737  23.242
 534.17  26.846  23.181
 534.67  26.629  23.150
 535.17  26.521  23.212
 535.67  26.737  23.212
 536.17  26.737  23.212
 536.67  26.737  23.212
 537.17  26.737  23.181
 537.67  26.737  23.181
 538.17  26.737  23.212
 538.67  26.737  23.212
 539.17  26.737  23.212
 539.67  26.737  23.212
 540.17  26.737  23.181
 540.67  26.737  23.212
 541.17  26.846  23.181
 541.67  26.846  23.181
 542.17  26.737  23.181
 542.67  26.846  23.212
 543.17  26.954  23.212
 543.67  26.954  23.242
 544.17  26.737  23.212
 544.67  26.846  23.181
 545.17  26.846  23.181
 545.67  26.846  23.181
 546.17  26.846  23.212
 546.67  26.846  23.181
 547.17  26.846  23.212
 547.67  26.846  23.212
 548.17  26.846  23.212
 548.67  26.846  23.212
 549.17  26.954  23.181
 549.67  26.954  23.181
 550.17  26.846  23.212
 550.67  26.954  23.181
 551.17  26.846  23.181
 551.67  26.954  23.181
 552.17  26.737  23.242
 552.67  26.954  23.212
 553.17  27.062  23.212
 553.67  26.846  23.242
 554.17  26.846  23.242
 554.67  27.062  23.212
 555.17  27.062  23.181
 555.67  26.846  23.212
 556.17  26.954  23.212
 556.67  26.737  23.212
 557.17  26.954  23.212
 557.67  27.170  23.212
 558.17  26.954  23.181
 558.67  26.954  23.212
 559.17  26.954  23.181
 559.67  26.846  23.212
 560.17  27.062  23.181
 560.67  26.954  23.212
 561.17  26.954  23.212
 561.67  26.846  23.181
 562.17  27.062  23.212
 562.67  26.954  23.181
 563.17  26.954  23.212
 563.67  26.846  23.212
 564.17  27.062  23.181
 564.67  26.954  23.181
 565.17  27.062  23.242
 565.67  27.062  23.212
 566.17  27.062  23.181
 566.67  26.954  23.212
 567.17  27.062  23.212
 567.67  26.954  23.181
 568.17  27.062  23.212
 568.67  27.170  23.212
 569.17  27.062  23.181
 569.67  26.954  23.212
 570.17  26.954  23.181
 570.67  26.954  23.212
 571.17  27.062  23.212
 571.67  27.170  23.181
 572.17  27.062  23.212
 572.67  27.170  23.242
 573.17  27.170  23.212
 573.67  26.954  23.181
 574.17  27.170  23.212
 574.67  27.062  23.273
 575.17  26.954  23.212
 575.67  27.170  23.242
 576.17  27.062  23.242
 576.67  27.170  23.242
 577.17  27.279  23.242
 577.67  27.170  23.212
 578.17  27.170  23.212
 578.67  27.170  23.212
 579.17  27.170  23.212
 579.67  27.062  23.212
 580.17  27.279  23.212
 580.67  27.170  23.242
 581.17  27.170  23.212
 581.67  27.279  23.212
 582.17  27.062  23.181
 582.67  27.170  23.212
 583.17  27.279  23.242
 583.67  27.170  23.212
 584.17  27.170  23.212
 584.67  27.170  23.212
 585.17  27.170  23.212
 585.67  27.279  23.212
 586.17  27.279  23.242
 586.67  27.279  23.212
 587.17  27.279  23.212
 587.67  27.279  23.212
 588.17  27.279  23.242
 588.67  27.279  23.212
 589.17  27.279  23.212
 589.67  27.170  23.242
 590.17  27.279  23.181
 590.67  27.279  23.242
 591.17  27.387  23.150
 591.67  27.279  23.212
 592.17  27.279  23.212
 592.67  27.279  23.242
 593.17  27.279  23.212
 593.67  27.495  23.212
 594.17  27.387  23.212
 594.67  27.279  23.242
 595.17  27.279  23.181
 595.67  27.387  23.181
 596.17  27.495  23.212
 596.67  27.387  23.242
 597.17  27.279  23.212
 597.67  27.387  23.181
 598.17  27.279  23.150
 598.67  27.387  23.212
 599.17  27.387  23.181
 599.67  27.387  23.212
 600.17  27.495  23.212
 600.67  27.387  23.212
 601.17  27.495  23.181
 601.67  27.387  23.212
 602.17  27.170  23.212
 602.67  27.387  23.181
 603.17  27.495  23.242
 603.67  27.603  23.212
 604.17  27.603  23.212
 604.67  27.387  23.212
 605.17  27.495  23.242
 605.67  27.387  23.242
 606.17  27.279  23.212
 606.67  27.387  23.242
 607.17  27.279  23.212
 607.67  27.495  23.212
 608.17  27.387  23.181
 608.67  27.387  23.181
 609.17  27.495  23.181
 609.67  27.495  23.242
 610.17  27.495  23.242
 610.67  27.495  23.242
 611.17  27.387  23.212
 611.67  27.279  23.212
 612.17  27.603  23.212
 612.67  27.495  23.212
 613.17  27.495  23.212
 613.67  27.495  23.212
 614.17  27.495  23.212
 614.67  27.495  23.212
 615.18  27.495  23.212
 615.68  27.603  23.212
 616.18  27.495  23.181
 616.68  27.603  23.181
 617.18  27.495  23.212
 617.68  27.495  23.181
 618.18  27.495  23.212
 618.68  27.603  23.242
 619.18  27.603  23.181
 619.68  27.603  23.212
 620.18  27.495  23.212
 620.68  27.603  23.212
 621.18  27.603  23.242
 621.68  27.603  23.212
 622.18  27.495  23.212
 622.68  27.603  23.212
 623.18  27.603  23.242
 623.68  27.603  23.212
 624.18  27.603  23.212
 624.68  27.603  23.242
 625.18  27.712  23.242
 625.68  27.712  23.242
 626.18  27.603  23.242
 626.68  27.603  23.212
 627.18  27.495  23.212
 627.68  27.603  23.212
 628.18  27.712  23.242
 628.68  27.712  23.212
 629.18  27.495  23.212
 629.68  27.712  23.212
 630.18  27.603  23.242
 630.68  27.603  23.242
 631.18  27.603  23.212
 631.68  27.603  23.212
 632.18  27.712  23.212
 632.68  27.603  23.242
 633.18  27.603  23.212
 633.68  27.928  23.212
 634.18  27.603  23.212
 634.68  27.603  23.242
 635.18  27.712  23.212
 635.68  27.495  23.212
 636.18  27.712  23.212
 636.68  27.712  23.212
 637.18  27.712  23.242
 637.68  27.712  23.212
 638.18  27.603  23.242
 638.68  27.928  23.181
 639.18  27.712  23.212
 639.68  27.712  23.242
 640.18  27.712  23.242
 640.68  27.712  23.242
 641.18  27.712  23.212
 641.68  27.820  23.242
 642.18  27.712  23.212
 642.68  27.603  23.242
 643.18  27.712  23.242
 643.68  27.603  23.242
 644.18  27.820  23.242
 644.68  27.820  23.212
 645.18  27.928  23.212
 645.68  27.712  23.212
 646.18  27.712  23.212
 646.68  27.820  23.181
 647.18  27.820  23.181
 647.68  27.820  23.212
 648.18  27.820  23.242
 648.68  27.820  23.242
 649.18  27.820  23.242
 649.68  27.820  23.273
 650.18  27.928  23.212
 650.68  27.928  23.212
 651.18  27.820  23.212
 651.68  27.820  23.212
 652.18  27.820  23.242
 652.68  27.820  23.212
 653.18  27.928  23.212
 653.68  27.820  23.212
 654.18  27.820  23.242
 654.68  27.928  23.242
 655.18  27.820  23.212
 655.68  27.820  23.212
 656.18  27.820  23.212
 656.68  27.820  23.212
 657.18  27.603  23.242
 657.68  27.820  23.242
 658.18  27.820  23.212
 658.68  27.928  23.212
 659.18  27.820  23.212
 659.68  27.928  23.242
 660.18  27.928  23.242
 660.68  27.928  23.242
 661.18  27.820  23.212
 661.68  27.928  23.212
 662.18  28.036  23.242
 662.68  27.928  23.212
 663.18  27.820  23.242
 663.68  28.036  23.242
 664.18  28.145  23.242
 664.68  27.928  23.212
 665.18  28.145  23.242
 665.68  27.928  23.242
 666.18  28.036  23.212
 666.68  28.036  23.273
 667.18  27.928  23.242
 667.68  27.928  23.242
 668.18  28.145  23.212
 668.68  27.820  23.273
 669.18  28.036  23.242
 669.68  28.145  23.242
 670.18  28.036  23.242
 670.68  28.036  23.212
 671.18  27.928  23.242
 671.68  28.036  23.242
 672.18  28.036  23.242
 672.68  27.928  23.242
 673.18  28.253  23.273
 673.68  27.928  23.242
 674.18  28.036  23.242
 674.68  28.036  23.242
 675.18  28.145  23.242
 675.68  27.928  23.242
 676.18  27.928  23.242
 676.68  28.036  23.212
 677.18  28.253  23.242
 677.68  28.036  23.212
 678.18  28.036  23.212
 678.68  28.036  23.212
 679.18  28.145  23.242
 679.68  28.036  23.212
 680.18  28.036  23.242
 680.68  28.145  23.242
 681.18  28.145  23.242
 681.68  27.928  23.212
 682.18  28.145  23.242
 682.68  28.036  23.242
 683.18  28.145  23.242
 683.68  28.036  23.242
 684.18  28.036  23.242
 684.68  28.145  23.242
 685.18  28.145  23.242
 685.68  28.145  23.273
 686.18  28.036  23.242
 686.68  28.145  23.212
 687.18  28.036  23.273
 687.68  28.036  23.242
 688.18  28.253  23.242
 688.68  28.145  23.242
 689.18  28.253  23.212
 689.68  28.036  23.212
 690.18  28.145  23.242
 690.68  28.145  23.242
 691.18  28.145  23.242
 691.68  28.253  23.242
 692.18  28.145  23.242
 692.68  28.145  23.242
 693.18  28.145  23.242
 693.68  28.145  23.212
 694.18  28.253  23.273
 694.68  28.145  23.242
 695.18  28.361  23.242
 695.68  28.253  23.212
 696.18  28.145  23.242
 696.68  28.469  23.242
 697.18  28.253  23.242
 697.68  28.361  23.242
 698.18  28.253  23.242
 698.68  28.253  23.212
 699.18  28.253  23.242
 699.68  28.253  23.242
 700.18  28.253  23.242
 700.68  28.253  23.242
 701.18  28.145  23.273
 701.68  28.253  23.242
 702.18  28.145  23.212
 702.68  28.253  23.212
 703.18  28.361  23.273
 703.68  28.253  23.242
 704.18  28.253  23.242
 704.68  28.361  23.242
 705.18  28.253  23.242
 705.68  28.145  23.242
 706.18  28.361  23.242
 706.68  28.361  23.242
 707.18  28.253  23.242
 707.68  28.361  23.273
 708.18  28.253  23.273
 708.68  28.361  23.242
 709.18  28.361  23.242
 709.68  28.253  23.242
 710.18  28.469  23.242
 710.68  28.253  23.273
 711.18  28.361  23.273
 711.68  28.361  23.242
 712.18  28.361  23.242
 712.68  28.253  23.212
 713.18  28.361  23.212
 713.68  28.253  23.304
 714.18  28.253  23.273
 714.68  28.361  23.242
 715.18  28.361  23.242
 715.68  28.361  23.242
 716.18  28.578  23.242
 716.68  28.361  23.242
 717.18  28.361  23.273
 717.68  28.361  23.273
 718.18  28.361  23.273
 718.68  28.469  23.242
 719.18  28.361  23.273
 719.68  28.469  23.273
 720.18  28.361  23.273
 720.68  28.469  23.273
 721.18  28.469  23.242
 721.68  28.469  23.242
 722.18  28.361  23.242
 722.68  28.469  23.242
 723.18  28.469  23.242
 723.68  28.469  23.242
 724.18  28.469  23.273
 724.68  28.469  23.212
 725.18  28.361  23.242
 725.68  28.469  23.242
 726.18  28.469  23.273
 726.68  28.686  23.242
 727.18  28.469  23.242
 727.68  28.469  23.242
 728.18  28.469  23.273
 728.69  28.469  23.242
 729.19  28.469  23.242
 729.69  28.469  23.242
 730.19  28.469  23.212
 730.69  28.469  23.242
 731.19  28.469  23.273
 731.69  28.469  23.242
 732.19  28.578  23.273
 732.69  28.469  23.212
 733.19  28.469  23.242
 733.69  28.469  23.212
 734.19  28.578  23.242
 734.69  28.469  23.242
 735.19  28.578  23.242
 735.69  28.578  23.242
 736.19  28.469  23.242
 736.69  28.361  23.242
 737.19  28.578  23.212
 737.69  28.578  23.242
 738.19  28.469  23.242
 738.69  28.361  23.242
 739.19  28.578  23.273
 739.69  28.578  23.273
 740.19  28.578  23.181
 740.69  28.578  23.212
 741.19  28.578  23.242
 741.69  28.578  23.181
 742.19  28.794  23.242
 742.69  28.578  23.242
 743.19  28.578  23.242
 743.69  28.686  23.242
 744.19  28.578  23.242
 744.69  28.578  23.242
 745.19  28.578  23.273
 745.69  28.686  23.242
 746.19  28.578  23.242
 746.69  28.578  23.273
 747.19  28.794  23.273
 747.69  28.578  23.242
 748.19  28.686  23.273
 748.69  28.578  23.273
 749.19  28.578  23.242
 749.69  28.686  23.242
 750.19  28.794  23.273
 750.69  28.578  23.273
 751.19  28.578  23.304
 751.69  28.902  23.212
 752.19  28.686  23.273
 752.69  28.686  23.273
 753.19  28.578  23.242
 753.69  28.686  23.242
 754.19  28.686  23.273
 754.69  28.794  23.242
 755.19  28.686  23.273
 755.69  28.794  23.273
 756.19  28.686  23.242
 756.69  28.578  23.273
 757.19  28.794  23.242
 757.69  28.794  23.273
 758.19  28.902  23.242
 758.69  28.578  23.242
 759.19  28.578  23.242
 759.69  28.794  23.273
 760.19  28.794  23.273
 760.69  28.686  23.273
 761.19  28.794  23.242
 761.69  28.794  23.273
 762.19  28.902  23.273
 762.69  28.794  23.273
 763.19  28.794  23.273
 763.69  28.578  23.304
 764.19  28.686  23.273
 764.69  28.686  23.304
 765.19  28.794  23.273
 765.69  28.794  23.273
 766.19  28.902  23.273
 766.69  28.686  23.273
 767.19  28.794  23.273
 767.69  28.794  23.273
 768.19  28.794  23.242
 768.69  28.794  23.304
 769.19  28.794  23.273
 769.69  28.902  23.273
 770.19  28.794  23.273
 770.69  28.902  23.273
 771.19  28.794  23.273
 771.69  28.794  23.242
 772.19  28.902  23.273
 772.69  28.794  23.242
 773.19  28.902  23.273
 773.69  28.902  23.273
 774.19  28.794  23.242
 774.69  28.794  23.273
 775.19  28.794  23.242
 775.69  28.902  23.273
 776.19  28.902  23.273
 776.69  28.902  23.242
 777.19  28.794  23.273
 777.69  28.902  23.273
 778.19  29.011  23.273
 778.69  28.902  23.242
 779.19  28.902  23.273
 779.69  28.578  23.304
 780.19  29.011  23.242
 780.69  28.794  23.304
 781.19  28.902  23.242
 781.69  29.011  23.242
 782.19  28.902  23.273
 782.69  28.686  23.273
 783.19  28.902  23.273
 783.69  28.902  23.273
 784.19  28.902  23.273
 784.69  28.902  23.273
 785.19  28.902  23.273
 785.69  28.902  23.273
 786.19  28.902  23.273
 786.69  29.011  23.273
 787.19  29.011  23.304
 787.69  28.902  23.273
 788.19  28.902  23.242
 788.69  29.011  23.273
 789.19  28.794  23.273
 789.69  29.227  23.212
 790.19  28.902  23.242
 790.69  29.011  23.273
 791.19  29.011  23.273
 791.69  28.902  23.242
 792.19  28.902  23.273
 792.69  29.119  23.273
 793.19  29.011  23.273
 793.69  29.119  23.273
 794.19  29.011  23.273
 794.69  29.011  23.273
 795.19  29.011  23.273
 795.69  29.011  23.304
 796.19  29.011  23.304
 796.69  29.011  23.273
 797.19  29.011  23.273
 797.69  29.011  23.273
 798.19  29.011  23.273
 798.69  29.011  23.304
 799.19  29.011  23.273
 799.69  29.119  23.273
 800.19  29.119  23.242
 800.69  29.011  23.242
 801.19  29.119  23.212
 801.69  29.119  23.273
 802.19  29.011  23.273
 802.69  29.011  23.273
 803.19  29.011  23.273
 803.69  29.119  23.273
 804.19  29.119  23.273
 804.69  29.119  23.273
 805.19  29.011  23.273
 805.69  29.119  23.273
 806.19  29.119  23.273
 806.69  29.119  23.273
 807.19  29.011  23.242
 807.69  29.119  23.273
 808.19  28.902  23.242
 808.69  29.119  23.273
 809.19  29.119  23.273
 809.69  29.011  23.242
 810.19  29.011  23.273
 810.69  29.011  23.304
 811.19  29.011  23.242
 811.69  29.011  23.273
 812.19  29.119  23.273
 812.69  29.119  23.304
 813.19  29.119  23.273
 813.69  29.119  23.273
 814.19  29.119  23.273
 814.69  29.227  23.273
 815.19  29.011  23.242
 815.69  29.119  23.304
 816.19  29.227  23.242
 816.69  29.119  23.304
 817.19  29.119  23.273
 817.69  29.119  23.242
 818.19  29.119  23.273
 818.69  29.227  23.273
 819.19  29.119  23.273
 819.69  29.335  23.273
 820.19  29.227  23.242
 820.69  29.227  23.273
 821.19  29.227  23.273
 821.69  29.227  23.273
 822.19  29.227  23.304
 822.69  29.227  23.273
 823.19  29.227  23.273
 823.69  29.227  23.304
 824.19  29.119  23.304
 824.69  29.227  23.304
 825.19  29.227  23.273
 825.69  29.227  23.273
 826.19  29.227  23.273
 826.69  29.227  23.273
 827.19  29.335  23.304
 827.69  29.227  23.273
 828.19  29.227  23.273
 828.69  29.335  23.273
 829.19  29.335  23.273
 829.69  29.227  23.304
 830.19  29.335  23.304
 830.70  29.227  23.273
 831.20  29.335  23.273
 831.70  29.227  23.304
 832.20  29.227  23.273
 832.70  29.335  23.273
 833.20  29.335  23.273
 833.70  29.227  23.273
 834.20  29.227  23.273
 834.70  29.227  23.273
 835.20  29.227  23.273
 835.70  29.335  23.273
 836.20  29.227  23.273
 836.70  29.335  23.304
 837.20  29.444  23.304
 837.70  29.552  23.273
 838.20  29.335  23.304
 838.70  29.335  23.304
 839.20  29.444  23.273
 839.70  29.444  23.304
 840.20  29.335  23.273
 840.70  29.335  23.304
 841.20  29.335  23.304
 841.70  29.335  23.304
 842.20  29.444  23.273
 842.70  29.335  23.273
 843.20  29.227  23.273
 843.70  29.227  23.304
 844.20  29.335  23.304
 844.70  29.335  23.304
 845.20  29.335  23.304
 845.70  29.335  23.212
 846.20  29.660  23.273
 846.70  29.444  23.304
 847.20  29.335  23.273
 847.70  29.335  23.304
 848.20  29.335  23.273
 848.70  29.227  23.304
 849.20  29.335  23.304
 849.70  29.227  23.273
 850.20  29.335  23.304
 850.70  29.335  23.304
 851.20  29.444  23.273
 851.70  29.335  23.304
 852.20  29.335  23.273
 852.70  29.444  23.304
 853.20  29.444  23.273
 853.70  29.335  23.273
 854.20  29.444  23.242
 854.70  29.444  23.304
 855.20  29.335  23.304
 855.70  29.335  23.273
 856.20  29.444  23.273
 856.70  29.335  23.304
 857.20  29.444  23.273
 857.70  29.444  23.273
 858.20  29.444  23.273
 858.70  29.552  23.273
 859.20  29.335  23.273
 859.70  29.444  23.242
 860.20  29.335  23.242
 860.70  29.444  23.335
 861.20  29.444  23.273
 861.70  29.444  23.304
 862.20  29.552  23.304
 862.70  29.444  23.273
 863.20  29.335  23.304
 863.70  29.444  23.304
 864.20  29.552  23.304
 864.70  29.444  23.304
 865.20  29.444  23.273
 865.70  29.444  23.304
 866.20  29.444  23.273
 866.70  29.444  23.273
 867.20  29.552  23.304
 867.70  29.444  23.273
 868.20  29.552  23.273
 868.70  29.444  23.273
 869.20  29.444  23.273
 869.70  29.335  23.304
 870.20  29.552  23.273
 870.70  29.552  23.335
 871.20  29.444  23.304
 871.70  29.444  23.304
 872.20  29.444  23.304
 872.70  29.444  23.273
 873.20  29.552  23.304
 873.70  29.660  23.304
 874.20  29.660  23.304
 874.70  29.552  23.273
 875.20  29.552  23.304
 875.70  29.552  23.304
 876.20  29.552  23.273
 876.70  29.444  23.335
 877.20  29.552  23.304
 877.70  29.552  23.304
 878.20  29.552  23.304
 878.70  29.552  23.242
 879.20  29.660  23.304
 879.70  29.552  23.273
 880.20  29.660  23.304
 880.70  29.660  23.273
 881.20  29.552  23.273
 881.70  29.552  23.304
 882.20  29.660  23.304
 882.70  29.552  23.273
 883.20  29.552  23.304
 883.70  29.660  23.335
 884.20  29.660  23.273
 884.70  29.660  23.304
 885.20  29.552  23.304
 885.70  29.552  23.304
 886.20  29.660  23.335
 886.70  29.552  23.335
 887.20  29.660  23.304
 887.70  29.660  23.304
 888.20  29.768  23.304
 888.70  29.660  23.304
 889.20  29.768  23.273
 889.70  29.660  23.304
 890.20  29.552  23.273
 890.70  29.660  23.304
 891.20  29.660  23.304
 891.70  29.660  23.335
 892.20  29.660  23.304
 892.70  29.768  23.304
 893.20  29.877  23.304
 893.70  29.660  23.335
 894.20  29.660  23.304
 894.70  29.768  23.304
 895.20  29.768  23.304
 895.70  29.660  23.304
 896.20  29.768  23.304
 896.70  29.768  23.304
 897.20  29.660  23.335
 897.70  29.877  23.304
 898.20  29.660  23.304
 898.70  29.877  23.335
 899.20  29.877  23.304
 899.70  29.877  23.304
 900.20  29.768  23.304
 900.70  29.768  23.304
 901.20  29.660  23.335
 901.70  29.660  23.304
 902.20  29.660  23.335
 902.70  29.768  23.335
 903.20  29.768  23.335
 903.70  29.660  23.304
 904.20  29.768  23.304
 904.70  29.768  23.304
 905.20  29.660  23.304
 905.70  29.985  23.304
 906.20  29.768  23.273
 906.70  29.660  23.304
 907.20  29.877  23.304
 907.70  29.768  23.304
 908.20  29.552  23.304
 908.70  29.660  23.273
 909.20  29.768  23.304
 909.70  29.768  23.304
 910.20  29.768  23.273
 910.70  29.768  23.304
 911.20  29.768  23.335
 911.70  29.877  23.304
 912.20  29.660  23.273
 912.70  29.877  23.304
 913.20  29.768  23.304
 913.70  29.877  23.304
 914.20  29.768  23.304
 914.70  29.768  23.304
 915.20  29.768  23.335
 915.70  29.877  23.335
 916.20  29.768  23.304
 916.70  29.877  23.273
 917.20  29.877  23.304
 917.70  29.877  23.273
 918.20  29.877  23.335
 918.70  29.877  23.304
 919.20  29.768  23.304
 919.70  29.877  23.304
 920.20  29.877  23.304
 920.70  29.985  23.273
 921.20  29.768  23.304
 921.70  29.985  23.335
 922.20  29.877  23.304
 922.70  29.768  23.335
 923.20  29.768  23.273
 923.70  29.985  23.304
 924.20  29.877  23.335
 924.70  29.877  23.304
 925.20  29.877  23.335
 925.70  29.877  23.304
 926.20  29.877  23.304
 926.70  29.877  23.304
 927.20  29.877  23.335
 927.70  29.985  23.335
 928.20  29.877  23.335
 928.70  29.985  23.304
 929.20  29.877  23.304
 929.70  29.985  23.304
 930.20  29.877  23.304
 930.70  30.101  23.335
 931.20  30.217  23.304
 931.70  29.877  23.335
 932.20  29.985  23.335
 932.70  29.985  23.304
 933.20  29.985  23.335
 933.70  29.768  23.366
 934.20  29.985  23.335
 934.70  29.985  23.304
 935.20  29.877  23.273
 935.70  29.877  23.304
 936.20  29.985  23.304
 936.70  29.985  23.335
 937.20  29.985  23.304
 937.70  30.217  23.335
 938.20  29.985  23.304
 938.70  29.985  23.304
 939.20  29.877  23.335
 939.70  29.877  23.304
 940.20  29.985  23.304
 940.70  29.985  23.304
 941.20  29.985  23.304
 941.70  29.877  23.304
 942.20  29.985  23.304
 942.70  29.985  23.304
 943.20  29.985  23.304
 943.70  29.985  23.304
 944.21  29.985  23.335
 944.71  29.877  23.304
 945.21  29.985  23.304
 945.71  29.985  23.335
 946.21  29.985  23.273
 946.71  30.101  23.304
 947.21  30.217  23.304
 947.71  30.101  23.304
 948.21  29.985  23.273
 948.71  29.877  23.304
 949.21  29.768  23.304
 949.71  30.101  23.304
 950.21  29.985  23.304
 950.71  30.101  23.304
 951.21  30.217  23.304
 951.71  29.985  23.304
 952.21  30.101  23.335
 952.71  30.101  23.304
 953.21  30.101  23.304
 953.71  29.985  23.273
 954.21  29.877  23.304
 954.71  29.985  23.304
 955.21  29.985  23.304
 955.71  29.985  23.304
 956.21  30.101  23.304
 956.71  30.101  23.304
 957.21  29.985  23.273
 957.71  30.101  23.335
 958.21  30.101  23.304
 958.71  30.101  23.335
 959.21  30.101  23.335
 959.71  30.334  23.304
 960.21  29.985  23.335
 960.71  29.985  23.304
 961.21  30.217  23.304
 961.71  30.101  23.335
 962.21  30.101  23.335
 962.71  30.101  23.304
 963.21  30.101  23.335
 963.71  29.985  23.335
 964.21  29.985  23.304
 964.71  30.101  23.335
 965.21  29.985  23.304
 965.71  30.101  23.304
 966.21  30.101  23.335
 966.71  29.985  23.335
 967.21  30.101  23.304
 967.71  30.101  23.335
 968.21  30.101  23.304
 968.71  30.101  23.335
 969.21  30.217  23.304
 969.71  30.217  23.304
 970.21  29.877  23.335
 970.71  30.101  23.273
 971.21  29.985  23.304
 971.71  30.334  23.304
 972.21  30.101  23.335
 972.71  30.101  23.304
 973.21  30.101  23.335
 973.71  30.217  23.335
 974.21  30.101  23.304
 974.71  30.101  23.304
 975.21  30.101  23.335
 975.71  30.101  23.335
 976.21  30.217  23.273
 976.71  30.101  23.335
 977.21  30.217  23.304
 977.71  29.985  23.304
 978.21  30.217  23.335
 978.71  30.217  23.335
 979.21  30.217  23.304
 979.71  30.217  23.304
 980.21  30.217  23.304
 980.71  30.217  23.335
 981.21  30.334  23.335
 981.71  30.217  23.335
 982.21  30.217  23.304
 982.71  30.217  23.335
 983.21  30.334  23.304
 983.71  30.217  23.304
 984.21  30.334  23.335
 984.71  30.217  23.335
 985.21  30.217  23.366
 985.71  30.217  23.304
 986.21  30.334  23.304
 986.71  30.334  23.335
 987.21  30.217  23.335
 987.71  30.217  23.335
 988.21  30.217  23.335
 988.71  30.334  23.304
 989.21  30.217  23.366
 989.71  30.451  23.273
 990.21  30.217  23.335
 990.71  30.334  23.304
 991.21  30.451  23.304
 991.71  30.334  23.304
 992.21  30.334  23.304
 992.71  30.451  23.335
 993.21  30.217  23.335
 993.71  30.217  23.335
 994.21  30.334  23.335
 994.71  30.334  23.304
 995.21  30.334  23.304
 995.71  30.217  23.366
 996.21  30.334  23.335
 996.71  30.334  23.335
 997.21  30.217  23.335
 997.71  30.334  23.304
 998.21  30.334  23.304
 998.71  30.334  23.335
 999.21  30.217  23.335
 999.71  30.451  23.335
1000.21  30.451  23.335
1000.71  30.334  23.304
1001.21  30.334  23.335
1001.71  30.334  23.366
1002.21  30.334  23.335
1002.71  30.334  23.335
1003.21  30.334  23.335
1003.71  30.451  23.335
1004.21  30.451  23.304
1004.71  30.685  23.335
1005.21  30.451  23.335
1005.71  30.334  23.335
1006.21  30.334  23.366
1006.71  30.334  23.335
1007.21  30.334  23.335
1007.71  30.334  23.304
1008.21  30.451  23.335
1008.71  30.334  23.335
1009.21  30.334  23.304
1009.71  30.451  23.304
1010.21  30.334  23.335
1010.71  30.334  23.335
1011.21  30.451  23.335
1011.71  30.568  23.335
1012.21  30.334  23.304
1012.71  30.451  23.304
1013.21  30.334  23.335
1013.71  30.451  23.335
1014.21  30.451  23.273
1014.71  30.217  23.335
1015.21  30.334  23.304
1015.71  30.334  23.335
1016.21  30.451  23.335
1016.71  30.334  23.335
1017.21  30.334  23.304
1017.71  30.451  23.304
1018.21  30.451  23.335
1018.71  30.451  23.335
1019.21  30.451  23.366
1019.71  30.451  23.335
1020.21  30.334  23.427
1020.71  30.334  23.304
1021.21  30.334  23.335
1021.71  30.451  23.366
1022.21  30.568  23.335
1022.71  30.451  23.335
1023.21  30.568  23.335
1023.71  30.451  23.335
1024.21  30.334  23.335
1024.71  30.334  23.335
1025.21  30.568  23.335
1025.71  30.568  23.304
1026.21  30.451  23.335
1026.71  30.451  23.335
1027.21  30.568  23.335
1027.71  30.451  23.335
1028.21  30.568  23.335
1028.71  30.334  23.366
1029.21  30.451  23.335
1029.71  30.451  23.335
1030.21  30.685  23.335
1030.71  30.568  23.335
1031.21  30.451  23.335
1031.71  30.217  23.304
1032.21  30.451  23.335
1032.71  30.451  23.335
1033.21  30.568  23.335
1033.71  30.568  23.304
1034.21  30.451  23.366
1034.71  30.568  23.304
1035.21  30.568  23.335
1035.71  30.568  23.335
1036.21  30.568  23.366
1036.71  30.568  23.335
1037.21  30.568  23.366
1037.71  30.568  23.335
1038.21  30.568  23.335
1038.71  30.568  23.335
1039.21  30.451  23.335
1039.71  30.568  23.335
1040.21  30.685  23.366
1040.71  30.685  23.335
1041.21  30.568  23.366
1041.71  30.685  23.396
1042.21  30.568  23.335
1042.71  30.568  23.335
1043.21  30.685  23.366
1043.71  30.685  23.304
1044.21  30.568  23.366
1044.71  30.685  23.335
1045.21  30.685  23.335
1045.71  30.451  23.366
1046.21  30.568  23.335
1046.71  30.685  23.335
1047.21  30.685  23.335
1047.71  30.685  23.335
1048.21  30.685  23.335
1048.71  30.568  23.335
1049.21  30.568  23.366
1049.71  30.685  23.366
1050.21  30.451  23.335
1050.71  30.568  23.396
1051.21  30.685  23.366
1051.71  30.685  23.366
1052.21  30.568  23.366
1052.71  30.568  23.366
1053.21  30.685  23.366
1053.71  30.685  23.335
1054.21  30.685  23.335
1054.71  30.568  23.366
1055.21  30.685  23.335
1055.71  30.685  23.335
1056.21  30.568  23.304
1056.71  30.685  23.366
1057.21  30.685  23.396
1057.71  30.685  23.304
1058.21  30.685  23.335
1058.71  30.685  23.366
1059.21  30.685  23.366
1059.71  30.685  23.335
1060.21  30.919  23.366
1060.71  30.802  23.366
1061.21  30.802  23.335
1061.71  30.568  23.335
1062.21  30.685  23.366
1062.71  30.802  23.335
1063.21  30.568  23.335
1063.71  30.685  23.366
1064.21  30.685  23.335
1064.71  30.685  23.335
1065.21  30.685  23.335
1065.71  30.685  23.335
1066.21  30.685  23.304
1066.71  30.568  23.335
1067.21  30.685  23.366
1067.71  30.568  23.304
1068.22  30.685  23.335
1068.72  30.685  23.335
1069.22  30.802  23.335
1069.72  30.685  23.366
1070.22  30.802  23.335
1070.72  30.802  23.366
1071.22  30.568  23.366
1071.72  30.685  23.427
1072.22  30.685  23.366
1072.72  30.802  23.396
1073.22  30.685  23.335
1073.72  30.802  23.366
1074.22  30.685  23.335
1074.72  30.802  23.335
1075.22  30.802  23.366
1075.72  30.685  23.335
1076.22  30.919  23.396
1076.72  30.919  23.366
1077.22  30.685  23.335
1077.72  30.802  23.366
1078.22  30.802  23.366
1078.72  30.919  23.335
1079.22  30.802  23.366
1079.72  30.919  23.304
1080.22  30.802  23.335
1080.72  30.919  23.366
1081.22  30.802  23.335
1081.72  30.685  23.366
1082.22  30.919  23.366
1082.72  30.919  23.366
1083.22  30.802  23.366
1083.72  30.802  23.366
1084.22  30.919  23.366
1084.72  30.919  23.335
1085.22  30.568  23.366
1085.72  30.802  23.335
1086.22  31.036  23.335
1086.72  30.919  23.396
1087.22  30.685  23.335
1087.72  30.802  23.366
1088.22  30.919  23.366
1088.72  30.802  23.366
1089.22  30.919  23.366
1089.72  30.802  23.366
1090.22  30.802  23.366
1090.72  30.919  23.366
1091.22  30.919  23.335
1091.72  30.919  23.335
1092.22  30.802  23.335
1092.72  30.802  23.366
1093.22  30.919  23.366
1093.72  30.802  23.366
1094.22  30.919  23.335
1094.72  31.036  23.335
1095.22  30.802  23.366
1095.72  30.919  23.335
1096.22  30.919  23.366
1096.72  30.802  23.335
1097.22  30.919  23.366
1097.72  30.919  23.335
1098.22  30.802  23.366
1098.72  30.919  23.366
1099.22  30.919  23.335
1099.72  30.919  23.335
1100.22  30.919  23.396
1100.72  31.036  23.396
1101.22  30.919  23.396
1101.72  30.802  23.366
1102.22  30.919  23.366
1102.72  31.036  23.366
1103.22  31.036  23.366
1103.72  31.036  23.396
1104.22  30.919  23.366
1104.72  31.036  23.335
1105.22  30.919  23.366
1105.72  30.919  23.366
1106.22  31.036  23.366
1106.72  30.919  23.366
1107.22  30.919  23.366
1107.72  30.919  23.366
1108.22  30.919  23.396
1108.72  30.802  23.335
1109.22  30.919  23.335
1109.72  30.802  23.366
1110.22  30.919  23.366
1110.72  31.036  23.396
1111.22  31.036  23.366
1111.72  31.036  23.366
1112.22  30.919  23.366
1112.72  31.152  23.396
1113.22  31.036  23.366
1113.72  31.152  23.366
1114.22  31.152  23.366
1114.72  30.919  23.396
1115.22  31.152  23.396
1115.72  31.036  23.335
1116.22  31.036  23.366
1116.72  31.036  23.335
1117.22  30.919  23.366
1117.72  31.036  23.396
1118.22  30.919  23.366
1118.72  31.036  23.366
1119.22  31.036  23.366
1119.72  31.036  23.366
1120.22  31.036  23.396
1120.72  31.036  23.366
1121.22  31.036  23.366
1121.72  31.269  23.366
1122.22  31.036  23.366
1122.72  31.036  23.366
1123.22  31.036  23.366
1123.72  30.919  23.396
1124.22  31.152  23.396
1124.72  31.036  23.366
1125.22  31.036  23.366
1125.72  31.152  23.366
1126.22  30.919  23.335
1126.72  30.919  23.427
1127.22  31.152  23.335
1127.72  31.152  23.366
1128.22  30.919  23.304
1128.72  31.036  23.366
1129.22  30.919  23.396
1129.72  31.152  23.396
1130.22  31.036  23.335
1130.72  31.036  23.396
1131.22  31.036  23.366
1131.72  31.036  23.366
1132.22  31.152  23.366
1132.72  30.919  23.366
1133.22  31.036  23.366
1133.72  31.152  23.396
1134.22  31.152  23.335
1134.72  31.386  23.366
1135.22  31.152  23.335
1135.72  31.152  23.396
1136.22  31.036  23.396
1136.72  31.152  23.427
1137.22  31.036  23.366
1137.72  31.036  23.366
1138.22  31.152  23.366
1138.72  31.152  23.366
1139.22  30.919  23.366
1139.72  31.152  23.335
1140.22  31.152  23.366
1140.72  31.152  23.335
1141.22  31.036  23.396
1141.72  31.036  23.335
1142.22  31.152  23.366
1142.72  31.152  23.396
1143.22  31.152  23.396
1143.72  31.152  23.366
1144.22  31.152  23.366
1144.72  31.152  23.366
1145.22  31.036  23.335
1145.72  31.269  23.396
1146.22  31.269  23.366
1146.72  31.036  23.366
1147.22  31.152  23.335
1147.72  31.269  23.366
1148.22  31.269  23.366
1148.72  31.152  23.366
1149.22  30.919  23.366
1149.72  31.152  23.366
1150.22  31.152  23.366
1150.72  31.152  23.366
1151.22  31.152  23.366
1151.72  31.269  23.366
1152.22  31.152  23.366
1152.72  31.152  23.366
1153.22  31.152  23.366
1153.72  31.269  23.335
1154.22  31.269  23.396
1154.72  31.269  23.427
1155.22  31.152  23.396
1155.72  31.036  23.366
1156.22  31.152  23.396
1156.72  31.269  23.427
1157.22  31.152  23.396
1157.72  31.269  23.396
1158.22  31.269  23.366
1158.72  31.152  23.396
1159.22  31.269  23.366
1159.72  31.269  23.366
1160.22  31.269  23.396
1160.72  31.152  23.366
1161.22  31.269  23.366
1161.72  31.269  23.396
1162.22  31.269  23.396
1162.72  31.269  23.396
1163.22  31.386  23.366
1163.72  31.269  23.396
1164.22  31.269  23.396
1164.72  31.386  23.366
1165.22  31.269  23.396
1165.72  31.269  23.366
1166.22  31.269  23.396
1166.72  31.269  23.366
1167.22  31.269  23.396
1167.72  31.269  23.396
1168.22  31.503  23.396
1168.72  31.269  23.396
1169.22  31.269  23.366
1169.72  31.152  23.366
1170.22  31.386  23.427
1170.72  31.269  23.366
1171.22  31.269  23.366
1171.72  31.386  23.396
1172.22  31.386  23.396
1172.72  31.269  23.396
1173.22  31.269  23.396
1173.72  31.152  23.366
1174.22  31.269  23.335
1174.72  31.386  23.366
1175.22  31.386  23.396
1175.72  31.152  23.366
1176.22  31.269  23.366
1176.72  31.386  23.396
1177.22  31.386  23.396
1177.72  31.152  23.396
1178.22  31.269  23.396
1178.72  31.269  23.366
1179.22  31.269  23.396
1179.72  31.386  23.396
1180.22  31.386  23.396
1180.72  31.269  23.366
1181.23  31.269  23.366
1181.73  31.269  23.366
1182.23  31.152  23.427
1182.73  31.269  23.396
1183.23  31.269  23.396
1183.73  31.503  23.396
1184.23  31.152  23.396
1184.73  31.386  23.366
1185.23  31.386  23.366
1185.73  31.503  23.396
1186.23  31.386  23.396
1186.73  31.386  23.396
1187.23  31.386  23.366
1187.73  31.386  23.396
1188.23  31.386  23.396
1188.73  31.386  23.396
1189.23  31.386  23.396
1189.73  31.152  23.427
1190.23  31.386  23.366
1190.73  31.386  23.335
1191.23  31.386  23.396
1191.73  31.503  23.427
1192.23  31.386  23.396
1192.73  31.386  23.396
1193.23  31.386  23.366
1193.73  31.386  23.396
1194.23  31.386  23.396
1194.73  31.503  23.396
1195.23  31.503  23.366
1195.73  31.386  23.396
1196.23  31.269  23.427
1196.73  31.269  23.396
1197.23  31.386  23.396
1197.73  31.386  23.335
1198.23  31.386  23.366
1198.73  31.386  23.396
1199.23  31.503  23.427
1199.73  31.386  23.396
1200.23  31.503  23.396
1200.73  31.503  23.396
1201.23  31.386  23.396
1201.73  31.386  23.427
1202.23  31.269  23.396
1202.73  31.386  23.366
1203.23  31.503  23.366
1203.73  31.386  23.396
1204.23  31.503  23.427
1204.73  31.503  23.396
1205.23  31.503  23.427
1205.73  31.386  23.396
1206.23  31.503  23.396
1206.73  31.503  23.396
1207.23  31.620  23.396
1207.73  31.620  23.396
1208.23  31.386  23.396
1208.73  31.386  23.396
1209.23  31.503  23.396
1209.73  31.503  23.396
1210.23  31.503  23.366
1210.73  31.503  23.427
1211.23  31.620  23.427
1211.73  31.386  23.366
1212.23  31.503  23.396
1212.73  31.503  23.396
1213.23  31.503  23.366
1213.73  31.386  23.366
1214.23  31.503  23.396
1214.73  31.503  23.396
1215.23  31.620  23.396
1215.73  31.503  23.396
1216.23  31.503  23.396
1216.73  31.503  23.396
1217.23  31.503  23.427
1217.73  31.737  23.427
1218.23  31.503  23.396
1218.73  31.386  23.427
1219.23  31.503  23.396
1219.73  31.386  23.427
1220.23  31.503  23.396
1220.73  31.503  23.396
1221.23  31.503  23.366
1221.73  31.620  23.396
1222.23  31.503  23.396
1222.73  31.620  23.396
1223.23  31.620  23.427
1223.73  31.503  23.427
1224.23  31.503  23.396
1224.73  31.737  23.396
1225.23  31.503  23.366
1225.73  31.503  23.396
1226.23  31.620  23.396
1226.73  31.386  23.427
1227.23  31.503  23.366
1227.73  31.503  23.396
1228.23  31.737  23.396
1228.73  31.503  23.396
1229.23  31.620  23.427
1229.73  31.620  23.427
1230.23  31.620  23.396
1230.73  31.620  23.427
1231.23  31.620  23.396
1231.73  31.503  23.396
1232.23  31.620  23.396
1232.73  31.503  23.427
1233.23  31.620  23.427
1233.73  31.620  23.427
1234.23  31.620  23.396
1234.73  31.620  23.396
1235.23  31.620  23.396
1235.73  31.737  23.396
1236.23  31.503  23.427
1236.73  31.620  23.396
1237.23  31.737  23.396
1237.73  31.737  23.396
1238.23  31.620  23.366
1238.73  31.386  23.366
1239.23  31.620  23.427
1239.73  31.620  23.396
1240.23  31.737  23.366
1240.73  31.620  23.458
1241.23  31.620  23.427
1241.73  31.620  23.396
1242.23  31.620  23.396
1242.73  31.854  23.396
1243.23  31.620  23.396
1243.73  31.620  23.427
1244.23  31.620  23.396
1244.73  31.620  23.396
1245.23  31.620  23.427
1245.73  31.737  23.396
1246.23  31.620  23.427
1246.73  31.620  23.396
1247.23  31.503  23.396
1247.73  31.620  23.396
1248.23  31.620  23.366
1248.73  31.620  23.427
1249.23  31.620  23.396
1249.73  31.737  23.396
1250.23  31.620  23.396
1250.73  31.620  23.427
1251.23  31.737  23.396
1251.73  31.620  23.427
1252.23  31.620  23.396
1252.73  31.620  23.366
1253.23  31.620  23.427
1253.73  31.620  23.396
1254.23  31.854  23.427
1254.73  31.620  23.427
1255.23  31.737  23.396
1255.73  31.620  23.427
1256.23  31.503  23.396
1256.73  31.737  23.396
1257.23  31.737  23.427
1257.73  31.620  23.335
1258.23  31.620  23.396
1258.73  31.620  23.396
1259.23  31.503  23.427
1259.73  31.620  23.396
1260.23  31.737  23.396
1260.73  31.737  23.396
1261.23  31.737  23.396
1261.73  31.737  23.396
1262.23  31.737  23.396
1262.73  31.737  23.458
1263.23  31.503  23.427
1263.73  31.737  23.427
1264.23  31.737  23.396
1264.73  31.854  23.396
1265.23  31.620  23.366
1265.73  31.620  23.396
1266.23  31.620  23.427
1266.73  31.737  23.427
1267.23  31.620  23.427
1267.73  31.737  23.366
1268.23  31.737  23.427
1268.73  31.620  23.458
1269.23  31.737  23.396
1269.73  31.737  23.396
1270.23  31.620  23.427
1270.73  31.620  23.427
1271.23  31.737  23.427
1271.73  31.620  23.427
1272.23  31.737  23.427
1272.73  31.854  23.396
1273.23  31.737  23.427
1273.73  31.854  23.427
1274.23  31.737  23.427
1274.73  31.737  23.427
1275.23  31.854  23.427
1275.73  31.737  23.396
1276.23  31.737  23.458
1276.73  31.854  23.427
1277.23  31.737  23.427
1277.73  31.854  23.396
1278.23  31.737  23.427
1278.73  31.854  23.427
1279.23  31.971  23.427
1279.73  31.854  23.427
1280.23  31.854  23.427
1280.73  31.737  23.427
1281.23  31.737  23.366
1281.73  31.737  23.396
1282.23  31.737  23.396
1282.73  31.737  23.427
1283.23  31.737  23.427
1283.73  31.971  23.427
1284.23  31.971  23.427
1284.73  31.737  23.427
1285.23  31.854  23.427
1285.73  31.854  23.396
1286.23  31.854  23.427
1286.73  31.737  23.396
1287.23  31.854  23.427
1287.73  31.737  23.427
1288.23  31.971  23.427
1288.73  31.854  23.427
1289.23  31.854  23.427
1289.73  32.087  23.427
1290.23  31.620  23.427
1290.73  31.854  23.396
1291.23  31.854  23.427
1291.73  31.971  23.396
1292.23  31.854  23.427
1292.73  31.854  23.427
1293.23  31.854  23.427
1293.73  31.854  23.366
1294.24  31.854  23.427
1294.74  31.854  23.427
1295.24  31.854  23.427
1295.74  31.854  23.427
1296.24  31.854  23.427
1296.74  31.854  23.458
1297.24  31.854  23.427
1297.74  31.737  23.396
1298.24  31.737  23.427
1298.74  31.854  23.427
1299.24  31.737  23.458
1299.74  31.854  23.396
1300.24  32.204  23.427
1300.74  31.971  23.427
1301.24  31.854  23.427
1301.74  31.737  23.427
1302.24  31.854  23.396
1302.74  31.854  23.396
1303.24  31.971  23.427
1303.74  31.854  23.396
1304.24  31.854  23.489
1304.74  31.854  23.427
1305.24  31.737  23.396
1305.74  31.971  23.458
1306.24  31.971  23.427
1306.74  31.854  23.396
1307.24  31.971  23.396
1307.74  31.971  23.427
1308.24  31.854  23.427
1308.74  31.971  23.427
1309.24  31.854  23.427
1309.74  31.854  23.396
1310.24  31.854  23.427
1310.74  31.854  23.427
1311.24  31.854  23.427
1311.74  31.971  23.396
1312.24  31.971  23.427
1312.74  31.971  23.396
1313.24  31.971  23.396
1313.74  31.971  23.427
1314.24  32.087  23.458
1314.74  31.971  23.396
1315.24  31.971  23.396
1315.74  32.087  23.396
1316.24  31.854  23.427
1316.74  31.971  23.427
1317.24  31.971  23.427
1317.74  31.854  23.396
1318.24  31.971  23.427
1318.74  31.971  23.427
1319.24  31.854  23.396
1319.74  31.971  23.427
1320.24  31.971  23.458
1320.74  31.854  23.458
1321.24  32.204  23.458
1321.74  31.854  23.427
1322.24  32.087  23.396
1322.74  31.971  23.427
1323.24  31.971  23.427
1323.74  31.854  23.427
1324.24  31.971  23.427
1324.74  31.971  23.427
1325.24  31.971  23.427
1325.74  31.971  23.458
1326.24  32.087  23.458
1326.74  32.087  23.427
1327.24  32.087  23.427
1327.74  31.971  23.427
1328.24  31.971  23.427
1328.74  31.971  23.458
1329.24  31.971  23.396
1329.74  32.087  23.427
1330.24  31.971  23.427
1330.74  32.087  23.427
1331.24  31.971  23.427
1331.74  31.971  23.427
1332.24  32.087  23.427
1332.74  31.971  23.427
1333.24  32.087  23.458
1333.74  31.971  23.458
1334.24  32.087  23.427
1334.74  32.087  23.396
1335.24  31.971  23.427
1335.74  31.854  23.427
1336.24  32.204  23.427
1336.74  31.854  23.427
1337.24  31.971  23.427
1337.74  32.087  23.427
1338.24  32.087  23.427
1338.74  31.971  23.458
1339.24  32.087  23.458
1339.74  31.971  23.458
1340.24  32.087  23.427
1340.74  31.971  23.427
1341.24  32.204  23.427
1341.74  31.971  23.427
1342.24  32.204  23.396
1342.74  32.204  23.458
1343.24  32.087  23.427
1343.74  32.087  23.427
1344.24  32.087  23.458
1344.74  32.087  23.396
1345.24  32.087  23.427
1345.74  32.087  23.489
1346.24  31.854  23.427
1346.74  31.971  23.427
1347.24  32.087  23.427
1347.74  31.971  23.427
1348.24  32.087  23.458
1348.74  31.971  23.396
1349.24  32.087  23.458
1349.74  32.087  23.427
1350.24  32.087  23.427
1350.74  32.204  23.458
1351.24  32.087  23.427
1351.74  32.087  23.427
1352.24  32.087  23.427
1352.74  32.087  23.427
1353.24  32.087  23.427
1353.74  32.087  23.458
1354.24  32.087  23.427
1354.74  32.087  23.396
1355.24  32.087  23.427
1355.74  32.204  23.458
1356.24  32.087  23.427
1356.74  32.087  23.427
1357.24  32.204  23.427
1357.74  32.087  23.458
1358.24  32.204  23.458
1358.74  32.087  23.458
1359.24  32.204  23.458
1359.74  32.204  23.427
1360.24  32.087  23.427
1360.74  32.204  23.458
1361.24  32.087  23.458
1361.74  32.204  23.489
1362.24  32.204  23.427
1362.74  32.204  23.458
1363.24  32.087  23.458
1363.74  32.087  23.427
1364.24  32.087  23.458
1364.74  32.204  23.458
1365.24  32.204  23.427
1365.74  32.087  23.458
1366.24  32.204  23.427
1366.74  32.087  23.427
1367.24  32.087  23.396
1367.74  32.204  23.427
1368.24  32.204  23.427
1368.74  32.087  23.458
1369.24  32.204  23.458
1369.74  32.087  23.396
1370.24  32.087  23.489
1370.74  32.204  23.427
1371.24  32.321  23.458
1371.74  32.087  23.427
1372.24  32.204  23.458
1372.74  32.204  23.427
1373.24  32.204  23.427
1373.74  31.854  23.458
1374.24  32.204  23.458
1374.74  32.087  23.458
1375.24  32.087  23.427
1375.74  32.204  23.458
1376.24  32.087  23.427
1376.74  32.087  23.427
1377.24  32.204  23.427
1377.74  32.204  23.458
1378.24  32.204  23.458
1378.74  32.204  23.458
1379.24  32.204  23.427
1379.74  32.087  23.458
1380.24  32.204  23.489
1380.74  32.087  23.427
1381.24  32.087  23.489
1381.74  32.204  23.427
1382.24  32.204  23.427
1382.74  32.204  23.427
1383.24  32.087  23.458
1383.74  32.087  23.458
1384.24  32.321  23.427
1384.74  32.204  23.427
1385.24  32.204  23.458
1385.74  32.204  23.427
1386.24  32.321  23.427
1386.74  32.087  23.458
1387.24  32.087  23.458
1387.74  32.204  23.458
1388.24  32.321  23.458
1388.74  32.321  23.427
1389.24  32.204  23.427
1389.74  32.321  23.458
1390.24  32.204  23.458
1390.74  32.321  23.427
1391.24  32.204  23.458
1391.74  32.321  23.458
1392.24  32.204  23.458
1392.74  32.321  23.396
1393.24  32.204  23.458
1393.74  32.204  23.427
1394.24  32.204  23.458
1394.74  32.321  23.427
1395.24  32.204  23.427
1395.74  32.204  23.458
1396.24  32.321  23.458
1396.74  32.204  23.458
1397.24  32.321  23.427
1397.74  32.321  23.458
1398.24  32.321  23.458
1398.74  32.321  23.458
1399.24  32.321  23.458
1399.74  32.438  23.458
1400.24  32.204  23.458
1400.74  32.204  23.458
1401.24  32.321  23.489
1401.74  32.321  23.427
1402.24  32.321  23.520
1402.74  32.438  23.489
1403.24  32.204  23.427
1403.74  32.321  23.458
1404.24  32.438  23.396
1404.74  32.321  23.458
1405.24  32.321  23.489
1405.74  32.321  23.458
1406.24  32.321  23.458
1406.74  32.321  23.458
1407.25  32.321  23.427
1407.75  32.321  23.458
1408.25  32.321  23.427
1408.75  32.321  23.458
1409.25  32.438  23.458
1409.75  32.321  23.427
1410.25  32.438  23.458
1410.75  32.204  23.458
1411.25  32.321  23.458
1411.75  32.321  23.458
1412.25  32.438  23.458
1412.75  32.321  23.458
1413.25  32.321  23.489
1413.75  32.321  23.427
1414.25  32.321  23.427
1414.75  32.438  23.489
1415.25  32.438  23.427
1415.75  32.321  23.458
1416.25  32.204  23.427
1416.75  32.321  23.427
1417.25  32.204  23.458
1417.75  32.438  23.458
1418.25  32.438  23.489
1418.75  32.321  23.458
1419.25  32.438  23.427
1419.75  32.321  23.458
1420.25  32.438  23.458
1420.75  32.438  23.489
1421.25  32.321  23.489
1421.75  32.555  23.458
1422.25  32.321  23.458
1422.75  32.321  23.458
1423.25  32.321  23.427
1423.75  32.438  23.458
1424.25  32.438  23.458
1424.75  32.321  23.458
1425.25  32.555  23.458
1425.75  32.438  23.458
1426.25  32.438  23.489
1426.75  32.438  23.489
1427.25  32.438  23.458
1427.75  32.438  23.458
1428.25  32.438  23.458
1428.75  32.438  23.458
1429.25  32.555  23.458
1429.75  32.438  23.489
1430.25  32.438  23.427
1430.75  32.321  23.489
1431.25  32.438  23.489
1431.75  32.438  23.458
1432.25  32.438  23.489
1432.75  32.438  23.458
1433.25  32.204  23.427
1433.75  32.438  23.489
1434.25  32.438  23.458
1434.75  32.438  23.427
1435.25  32.438  23.458
1435.75  32.438  23.458
1436.25  32.438  23.489
1436.75  32.555  23.458
1437.25  32.438  23.458
1437.75  32.438  23.458
1438.25  32.438  23.458
1438.75  32.555  23.458
1439.25  32.438  23.427
1439.75  32.438  23.458
1440.25  32.438  23.458
1440.75  32.438  23.458
1441.25  32.438  23.520
1441.75  32.438  23.458
1442.25  32.555  23.489
1442.75  32.438  23.427
1443.25  32.555  23.520
1443.75  32.555  23.489
1444.25  32.438  23.458
1444.75  32.555  23.489
1445.25  32.555  23.458
1445.75  32.438  23.458
1446.25  32.555  23.458
1446.75  32.555  23.458
1447.25  32.438  23.458
1447.75  32.438  23.458
1448.25  32.321  23.458
1448.75  32.438  23.458
1449.25  32.555  23.489
1449.75  32.555  23.458
1450.25  32.438  23.458
1450.75  32.438  23.458
1451.25  32.438  23.458
1451.75  32.555  23.427
1452.25  32.555  23.458
1452.75  32.555  23.396
1453.25  32.555  23.458
1453.75  32.672  23.396
1454.25  32.555  23.458
1454.75  32.555  23.458
1455.25  32.672  23.489
1455.75  32.438  23.458
1456.25  32.555  23.458
1456.75  32.438  23.458
1457.25  32.555  23.458
1457.75  32.555  23.458
1458.25  32.438  23.458
1458.75  32.438  23.489
1459.25  32.438  23.489
1459.75  32.438  23.427
1460.25  32.672  23.458
1460.75  32.555  23.489
1461.25  32.438  23.489
1461.75  32.438  23.458
1462.25  32.555  23.489
1462.75  32.555  23.458
1463.25  32.555  23.427
1463.75  32.555  23.458
1464.25  32.672  23.489
1464.75  32.555  23.458
1465.25  32.555  23.489
1465.75  32.672  23.458
1466.25  32.555  23.458
1466.75  32.555  23.489
1467.25  32.555  23.489
1467.75  32.555  23.458
1468.25  32.555  23.489
1468.75  32.555  23.489
1469.25  32.555  23.458
1469.75  32.555  23.489
1470.25  32.672  23.458
1470.75  32.555  23.489
1471.25  32.672  23.489
1471.75  32.555  23.458
1472.25  32.438  23.489
1472.75  32.555  23.458
1473.25  32.555  23.458
1473.75  32.672  23.458
1474.25  32.555  23.489
1474.75  32.789  23.458
1475.25  32.555  23.458
1475.75  32.555  23.489
1476.25  32.672  23.520
1476.75  32.555  23.458
1477.25  32.672  23.489
1477.75  32.555  23.489
1478.25  32.672  23.489
1478.75  32.672  23.489
1479.25  32.672  23.489
1479.75  32.672  23.489
1480.25  32.672  23.458
1480.75  32.555  23.458
1481.25  32.555  23.489
1481.75  32.672  23.489
1482.25  32.555  23.396
1482.75  32.672  23.489
1483.25  32.672  23.489
1483.75  32.555  23.458
1484.25  32.789  23.520
1484.75  32.672  23.458
1485.25  32.672  23.458
1485.75  32.672  23.489
1486.25  32.672  23.520
1486.75  32.555  23.489
1487.25  32.672  23.520
1487.75  32.672  23.489
1488.25  32.672  23.489
1488.75  32.672  23.489
1489.25  32.555  23.489
1489.75  32.672  23.489
1490.25  32.555  23.458
1490.75  32.555  23.458
1491.25  32.672  23.489
1491.75  32.672  23.489
1492.25  32.555  23.489
1492.75  32.672  23.489
1493.25  32.555  23.489
1493.75  32.789  23.520
1494.25  32.672  23.458
1494.75  32.672  23.489
1495.25  32.672  23.458
1495.75  32.555  23.489
1496.25  32.672  23.427
1496.75  32.672  23.489
1497.25  32.555  23.458
1497.75  32.789  23.458
1498.25  32.672  23.489
1498.75  32.789  23.458
1499.25  32.789  23.489
1499.75  32.672  23.489
1500.25  32.672  23.458
1500.75  32.906  23.458
1501.25  32.789  23.489
1501.75  32.672  23.489
1502.25  32.672  23.489
1502.75  32.672  23.489
1503.25  32.672  23.489
1503.75  32.672  23.489
1504.25  32.672  23.489
1504.75  32.672  23.489
1505.25  32.672  23.489
1505.75  32.672  23.520
1506.25  32.672  23.489
1506.75  32.672  23.489
1507.25  32.789  23.489
1507.75  32.672  23.489
1508.25  32.789  23.458
1508.75  32.672  23.489
1509.25  32.789  23.489
1509.76  32.672  23.489
1510.26  32.672  23.489
1510.76  32.789  23.489
1511.26  32.789  23.550
1511.76  32.672  23.489
1512.26  32.789  23.489
1512.76  32.789  23.489
1513.26  32.672  23.458
1513.76  32.672  23.489
1514.26  32.672  23.520
1514.76  32.672  23.520
1515.26  32.789  23.458
1515.76  32.789  23.489
1516.26  32.789  23.489
1516.76  32.672  23.489
1517.26  32.789  23.489
1517.76  32.789  23.489
1518.26  32.672  23.489
1518.76  32.672  23.520
1519.26  32.789  23.458
1519.76  32.789  23.458
1520.26  32.789  23.520
1520.76  32.555  23.458
1521.26  32.789  23.489
1521.76  32.789  23.489
1522.26  32.789  23.520
1522.76  32.789  23.489
1523.26  32.789  23.489
1523.76  32.789  23.458
1524.26  32.906  23.520
1524.76  32.789  23.458
1525.26  32.789  23.489
1525.76  32.789  23.489
1526.26  32.789  23.489
1526.76  32.789  23.489
1527.26  32.672  23.489
1527.76  32.555  23.489
1528.26  32.789  23.520
1528.76  32.789  23.489
1529.26  32.789  23.489
1529.76  32.672  23.489
1530.26  32.672  23.520
1530.76  32.789  23.520
1531.26  32.789  23.489
1531.76  32.672  23.458
1532.26  32.789  23.520
1532.76  32.672  23.458
1533.26  32.789  23.489
1533.76  32.906  23.489
1534.26  32.906  23.489
1534.76  32.906  23.458
1535.26  32.789  23.489
1535.76  32.906  23.489
1536.26  32.906  23.520
1536.76  32.789  23.489
1537.26  32.906  23.489
1537.76  32.789  23.489
1538.26  32.789  23.489
1538.76  32.789  23.489
1539.26  32.789  23.489
1539.76  32.789  23.520
1540.26  32.672  23.520
1540.76  32.789  23.489
1541.26  32.789  23.489
1541.76  32.672  23.489
1542.26  32.789  23.489
1542.76  32.906  23.489
1543.26  32.789  23.489
1543.76  32.789  23.489
1544.26  32.906  23.489
1544.76  32.789  23.489
1545.26  32.789  23.489
1545.76  32.789  23.520
1546.26  32.906  23.520
1546.76  32.789  23.458
1547.26  32.906  23.489
1547.76  32.789  23.458
1548.26  33.022  23.458
1548.76  32.789  23.489
1549.26  32.789  23.458
1549.76  32.906  23.489
1550.26  32.906  23.520
1550.76  32.906  23.489
1551.26  32.789  23.458
1551.76  32.789  23.520
1552.26  32.906  23.489
1552.76  32.906  23.520
1553.26  32.906  23.489
1553.76  32.789  23.489
1554.26  32.906  23.520
1554.76  32.906  23.489
1555.26  32.906  23.520
1555.76  33.022  23.489
1556.26  32.789  23.520
1556.76  32.789  23.489
1557.26  32.906  23.489
1557.76  32.906  23.489
1558.26  32.789  23.489
1558.76  32.906  23.489
1559.26  32.906  23.458
1559.76  32.906  23.489
1560.26  32.906  23.520
1560.76  32.906  23.489
1561.26  33.139  23.520
1561.76  32.906  23.520
1562.26  32.906  23.489
1562.76  32.906  23.489
1563.26  32.906  23.520
1563.76  32.906  23.458
1564.26  32.789  23.520
1564.76  33.022  23.489
1565.26  32.906  23.489
1565.76  32.789  23.489
1566.26  32.906  23.489
1566.76  32.906  23.489
1567.26  32.906  23.520
1567.76  32.906  23.489
1568.26  32.789  23.520
1568.76  33.022  23.581
1569.26  32.906  23.489
1569.76  32.906  23.520
1570.26  32.906  23.520
1570.76  32.906  23.489
1571.26  33.022  23.489
1571.76  33.022  23.489
1572.26  32.906  23.489
1572.76  32.906  23.489
1573.26  32.906  23.520
1573.76  32.906  23.489
1574.26  32.906  23.489
1574.76  32.906  23.520
1575.26  32.906  23.550
1575.76  33.022  23.489
1576.26  32.789  23.550
1576.76  32.789  23.489
1577.26  33.022  23.489
1577.76  33.022  23.520
1578.26  33.022  23.489
1578.76  32.906  23.489
1579.26  33.022  23.520
1579.76  33.022  23.550
1580.26  33.022  23.550
1580.76  33.022  23.489
1581.26  32.906  23.520
1581.76  33.022  23.520
1582.26  33.139  23.520
1582.76  32.906  23.520
1583.26  33.022  23.550
1583.76  33.022  23.520
1584.26  32.906  23.489
1584.76  33.022  23.550
1585.26  33.022  23.520
1585.76  33.022  23.520
1586.26  32.906  23.489
1586.76  33.022  23.520
1587.26  33.022  23.489
1587.76  33.022  23.520
1588.26  33.022  23.520
1588.76  32.906  23.458
1589.26  32.906  23.489
1589.76  33.022  23.489
1590.26  33.022  23.520
1590.76  33.022  23.520
1591.26  33.022  23.489
1591.76  33.022  23.520
1592.26  33.022  23.489
1592.76  32.906  23.489
1593.26  32.906  23.550
1593.76  33.022  23.489
1594.26  33.022  23.489
1594.76  33.022  23.520
1595.26  32.672  23.458
1595.76  33.022  23.520
1596.26  33.022  23.458
1596.76  32.906  23.550
1597.26  33.022  23.489
1597.76  33.022  23.520
1598.26  33.022  23.489
1598.76  33.139  23.489
1599.26  33.022  23.458
1599.76  33.022  23.489
1600.26  33.022  23.520
1600.76  33.139  23.520
1601.26  33.139  23.520
1601.76  33.022  23.489
1602.26  32.906  23.520
1602.76  33.022  23.520
1603.26  33.139  23.550
1603.76  33.139  23.489
1604.26  33.022  23.520
1604.76  33.022  23.520
1605.26  33.256  23.520
1605.76  33.022  23.489
1606.26  33.256  23.520
1606.76  33.022  23.520
1607.26  33.022  23.489
1607.76  33.139  23.520
1608.26  33.139  23.520
1608.76  33.022  23.550
1609.26  33.139  23.520
1609.76  33.139  23.520
1610.26  33.022  23.520
1610.76  33.139  23.581
1611.26  33.139  23.520
1611.76  33.139  23.520
1612.26  33.022  23.520
1612.76  33.022  23.489
1613.26  33.022  23.520
1613.76  33.022  23.520
1614.26  33.022  23.520
1614.76  33.022  23.550
1615.26  33.022  23.550
1615.76  33.022  23.458
1616.26  33.139  23.520
1616.76  33.022  23.520
1617.26  33.022  23.550
1617.76  33.022  23.520
1618.26  33.022  23.489
1618.76  33.022  23.520
1619.26  33.022  23.520
1619.76  33.022  23.520
1620.26  33.139  23.489
1620.76  33.139  23.520
1621.26  33.139  23.520
1621.76  33.139  23.550
1622.26  33.022  23.489
1622.77  33.139  23.520
1623.27  33.139  23.520
1623.77  33.022  23.520
1624.27  33.022  23.520
1624.77  33.139  23.581
1625.27  33.256  23.489
1625.77  33.256  23.550
1626.27  33.022  23.520
1626.77  33.256  23.550
1627.27  33.139  23.520
1627.77  33.139  23.520
1628.27  33.022  23.489
1628.77  33.256  23.520
1629.27  33.139  23.520
1629.77  33.139  23.520
1630.27  33.256  23.520
1630.77  32.906  23.489
1631.27  33.139  23.489
1631.77  33.256  23.520
1632.27  33.139  23.520
1632.77  33.256  23.458
1633.27  33.139  23.550
1633.77  33.256  23.520
1634.27  33.256  23.550
1634.77  33.256  23.489
1635.27  33.139  23.550
1635.77  33.139  23.520
1636.27  33.256  23.550
1636.77  33.256  23.520
1637.27  33.139  23.520
1637.77  33.139  23.550
1638.27  33.373  23.520
1638.77  33.373  23.520
1639.27  33.139  23.489
1639.77  33.139  23.520
1640.27  33.139  23.550
1640.77  33.256  23.520
1641.27  33.139  23.520
1641.77  33.022  23.520
1642.27  33.139  23.520
1642.77  33.256  23.520
1643.27  33.139  23.581
1643.77  33.139  23.550
1644.27  33.256  23.550
1644.77  33.256  23.520
1645.27  33.256  23.489
1645.77  33.373  23.520
1646.27  33.256  23.489
1646.77  33.256  23.489
1647.27  33.256  23.489
1647.77  33.373  23.520
1648.27  33.139  23.520
1648.77  33.256  23.520
1649.27  33.139  23.550
1649.77  33.139  23.520
1650.27  33.139  23.489
1650.77  33.256  23.581
1651.27  33.256  23.520
1651.77  33.256  23.520
1652.27  33.256  23.489
1652.77  33.139  23.581
1653.27  33.256  23.520
1653.77  33.139  23.550
1654.27  33.256  23.520
1654.77  33.139  23.520
1655.27  33.139  23.520
1655.77  33.139  23.520
1656.27  33.139  23.520
1656.77  33.256  23.520
1657.27  33.139  23.520
1657.77  33.256  23.489
1658.27  33.256  23.550
1658.77  33.139  23.550
1659.27  33.256  23.520
1659.77  33.373  23.550
1660.27  33.139  23.550
1660.77  33.256  23.550
1661.27  33.256  23.520
1661.77  33.139  23.550
1662.27  33.256  23.550
1662.77  33.373  23.550
1663.27  33.256  23.550
1663.77  33.373  23.550
1664.27  33.256  23.550
1664.77  33.373  23.550
1665.27  33.373  23.520
1665.77  33.256  23.520
1666.27  33.373  23.550
1666.77  33.256  23.489
1667.27  33.139  23.550
1667.77  33.373  23.581
1668.27  33.256  23.520
1668.77  33.256  23.550
1669.27  33.373  23.581
1669.77  33.256  23.550
1670.27  33.256  23.520
1670.77  33.256  23.489
1671.27  33.256  23.550
1671.77  33.256  23.520
1672.27  33.490  23.550
1672.77  33.139  23.520
1673.27  33.373  23.581
1673.77  33.256  23.520
1674.27  33.490  23.550
1674.77  33.373  23.520
1675.27  33.373  23.489
1675.77  33.256  23.520
1676.27  33.373  23.550
1676.77  33.256  23.550
1677.27  33.256  23.550
1677.77  33.373  23.550
1678.27  33.373  23.550
1678.77  33.139  23.550
1679.27  33.373  23.520
1679.77  33.256  23.550
1680.27  33.256  23.520
1680.77  33.256  23.550
1681.27  33.373  23.550
1681.77  33.256  23.550
1682.27  33.256  23.550
1682.77  33.256  23.550
1683.27  33.256  23.550
1683.77  33.256  23.550
1684.27  33.373  23.489
1684.77  33.256  23.550
1685.27  33.373  23.550
1685.77  33.256  23.520
1686.27  33.373  23.550
1686.77  33.373  23.550
1687.27  33.373  23.550
1687.77  33.373  23.520
1688.27  33.139  23.520
1688.77  33.256  23.550
1689.27  33.256  23.581
1689.77  33.490  23.550
1690.27  33.256  23.520
1690.77  33.256  23.550
1691.27  33.373  23.520
1691.77  33.139  23.550
1692.27  33.139  23.550
1692.77  33.256  23.581
1693.27  33.373  23.520
1693.77  33.256  23.520
1694.27  33.373  23.550
1694.77  33.256  23.550
1695.27  33.373  23.520
1695.77  33.256  23.520
1696.27  33.256  23.550
1696.77  33.373  23.550
1697.27  33.373  23.550
1697.77  33.256  23.550
1698.27  33.373  23.520
1698.77  33.373  23.520
1699.27  33.490  23.550
1699.77  33.490  23.550
1700.27  33.373  23.520
1700.77  33.373  23.550
1701.27  33.490  23.550
1701.77  33.373  23.550
1702.27  33.373  23.550
1702.77  33.373  23.550
1703.27  33.373  23.520
1703.77  33.373  23.550
1704.27  33.373  23.550
1704.77  33.256  23.520
1705.27  33.373  23.550
1705.77  33.373  23.550
1706.27  33.373  23.550
1706.77  33.373  23.550
1707.27  33.373  23.550
1707.77  33.256  23.550
1708.27  33.373  23.520
1708.77  33.256  23.520
1709.27  33.373  23.550
1709.77  33.373  23.550
1710.27  33.373  23.550
1710.77  33.490  23.550
1711.27  33.490  23.550
1711.77  33.373  23.520
1712.27  33.373  23.550
1712.77  33.373  23.550
1713.27  33.373  23.581
1713.77  33.373  23.520
1714.27  33.490  23.550
1714.77  33.373  23.581
1715.27  33.490  23.550
1715.77  33.490  23.612
1716.27  33.373  23.550
1716.77  33.373  23.520
1717.27  33.256  23.520
1717.77  33.490  23.520
1718.27  33.607  23.581
1718.77  33.373  23.581
1719.27  33.373  23.581
1719.77  33.607  23.550
1720.27  33.490  23.550
1720.77  33.490  23.550
1721.27  33.490  23.550
1721.77  33.373  23.612
1722.27  33.373  23.550
1722.77  33.373  23.581
1723.27  33.490  23.550
1723.77  33.490  23.550
1724.27  33.490  23.550
1724.77  33.490  23.550
1725.27  33.373  23.550
1725.77  33.256  23.550
1726.27  33.490  23.550
1726.77  33.373  23.581
1727.27  33.490  23.550
1727.77  33.490  23.550
1728.27  33.256  23.550
1728.77  33.373  23.581
1729.27  33.490  23.550
1729.77  33.490  23.550
1730.27  33.256  23.550
1730.77  33.373  23.550
1731.27  33.373  23.581
1731.77  33.490  23.550
1732.27  33.373  23.581
1732.77  33.373  23.550
1733.27  33.607  23.520
1733.77  33.373  23.581
1734.27  33.607  23.520
1734.77  33.490  23.520
1735.27  33.373  23.550
1735.77  33.490  23.550
1736.28  33.490  23.520
1736.78  33.724  23.520
1737.28  33.490  23.550
1737.78  33.490  23.550
1738.28  33.373  23.520
1738.78  33.490  23.550
1739.28  33.490  23.550
1739.78  33.490  23.550
1740.28  33.490  23.550
1740.78  33.373  23.520
1741.28  33.490  23.581
1741.78  33.490  23.581
1742.28  33.373  23.550
1742.78  33.490  23.550
1743.28  33.490  23.581
1743.78  33.490  23.581
1744.28  33.607  23.581
1744.78  33.490  23.550
1745.28  33.490  23.550
1745.78  33.490  23.550
1746.28  33.490  23.581
1746.78  33.490  23.550
1747.28  33.490  23.550
1747.78  33.373  23.550
1748.28  33.490  23.550
1748.78  33.373  23.550
1749.28  33.490  23.550
1749.78  33.490  23.550
1750.28  33.490  23.550
1750.78  33.490  23.550
1751.28  33.490  23.550
1751.78  33.607  23.550
1752.28  33.724  23.550
1752.78  33.607  23.581
1753.28  33.607  23.520
1753.78  33.490  23.581
1754.28  33.490  23.550
1754.78  33.607  23.550
1755.28  33.607  23.581
1755.78  33.490  23.550
1756.28  33.607  23.520
1756.78  33.607  23.550
1757.28  33.607  23.550
1757.78  33.490  23.581
1758.28  33.373  23.550
1758.78  33.607  23.612
1759.28  33.607  23.550
1759.78  33.607  23.581
1760.28  33.607  23.581
1760.78  33.490  23.520
1761.28  33.490  23.550
1761.78  33.607  23.643
1762.28  33.607  23.520
1762.78  33.490  23.550
1763.28  33.490  23.550
1763.78  33.607  23.550
1764.28  33.490  23.581
1764.78  33.490  23.550
1765.28  33.607  23.581
1765.78  33.490  23.550
1766.28  33.490  23.550
1766.78  33.607  23.581
1767.28  33.607  23.612
1767.78  33.490  23.550
1768.28  33.607  23.581
1768.78  33.490  23.550
1769.28  33.724  23.550
1769.78  33.490  23.520
1770.28  33.724  23.612
1770.78  33.373  23.581
1771.28  33.373  23.550
1771.78  33.607  23.550
1772.28  33.607  23.581
1772.78  33.607  23.520
1773.28  33.490  23.550
1773.78  33.607  23.550
1774.28  33.724  23.581
1774.78  33.607  23.550
1775.28  33.607  23.581
1775.78  33.490  23.612
1776.28  33.607  23.550
1776.78  33.607  23.581
1777.28  33.490  23.581
1777.78  33.607  23.581
1778.28  33.607  23.581
1778.78  33.607  23.550
1779.28  33.724  23.550
1779.78  33.490  23.520
1780.28  33.607  23.581
1780.78  33.607  23.581
1781.28  33.607  23.581
1781.78  33.607  23.550
1782.28  33.490  23.612
1782.78  33.724  23.581
1783.28  33.490  23.550
1783.78  33.607  23.550
1784.28  33.490  23.581
1784.78  33.724  23.550
1785.28  33.607  23.581
1785.78  33.607  23.550
1786.28  33.607  23.581
1786.78  33.607  23.581
1787.28  33.607  23.550
1787.78  33.256  23.550
1788.28  33.490  23.550
1788.78  33.607  23.612
1789.28  33.607  23.550
1789.78  33.490  23.581
1790.28  33.724  23.550
1790.78  33.841  23.581
1791.28  33.607  23.612
1791.78  33.724  23.550
1792.28  33.607  23.550
1792.78  33.724  23.581
1793.28  33.607  23.550
1793.78  33.607  23.581
1794.28  33.724  23.550
1794.78  33.607  23.581
1795.28  33.607  23.581
1795.78  33.724  23.550
1796.28  33.607  23.581
1796.78  33.724  23.581
1797.28  33.607  23.581
1797.78  33.490  23.581
1798.28  33.724  23.581
1798.78  33.607  23.550
1799.28  33.724  23.581
1799.78  33.607  23.550
1800.28  33.607  23.581
1800.78  33.724  23.550
1801.28  33.724  23.550
1801.78  33.724  23.550
1802.28  33.607  23.550
1802.78  33.607  23.581
1803.28  33.724  23.550
1803.78  33.607  23.612
1804.28  33.724  23.550
1804.78  33.607  23.581
1805.28  33.607  23.550
1805.78  33.724  23.581
1806.28  33.724  23.550
1806.78  33.841  23.581
1807.28  33.724  23.550
1807.78  33.724  23.581
1808.28  33.607  23.581
1808.78  33.607  23.581
1809.28  33.607  23.550
1809.78  33.724  23.550
1810.28  33.724  23.581
1810.78  33.724  23.581
1811.28  33.724  23.581
1811.78  33.724  23.612
1812.28  33.607  23.581
1812.78  33.724  23.581
1813.28  33.841  23.581
1813.78  33.724  23.581
1814.28  33.841  23.612
1814.78  33.607  23.550
1815.28  33.607  23.581
1815.78  33.607  23.581
1816.28  33.724  23.612
1816.78  33.607  23.581
1817.28  33.724  23.550
1817.78  33.724  23.581
1818.28  33.724  23.581
1818.78  33.724  23.612
1819.28  33.724  23.550
1819.78  33.724  23.550
1820.28  33.724  23.581
1820.78  33.724  23.581
1821.28  33.724  23.550
1821.78  33.724  23.581
1822.28  33.724  23.550
1822.78  33.724  23.581
1823.28  33.724  23.581
1823.78  33.724  23.550
1824.28  33.724  23.581
1824.78  33.724  23.612
1825.28  33.724  23.550
1825.78  33.724  23.581
1826.28  33.724  23.581
1826.78  33.607  23.581
1827.28  33.841  23.581
1827.78  33.607  23.550
1828.28  33.607  23.581
1828.78  33.841  23.581
1829.28  33.724  23.550
1829.78  33.841  23.581
1830.28  33.724  23.581
1830.78  33.724  23.520
1831.28  33.724  23.581
1831.78  33.724  23.612
1832.28  33.490  23.581
1832.78  33.724  23.581
1833.28  33.841  23.581
1833.78  33.724  23.581
1834.28  33.607  23.581
1834.78  33.724  23.581
1835.28  33.724  23.550
1835.78  33.724  23.581
1836.28  33.724  23.581
1836.78  33.607  23.581
1837.28  33.841  23.581
1837.78  33.607  23.581
1838.28  33.724  23.581
1838.78  33.724  23.581
1839.28  33.841  23.581
1839.78  33.841  23.643
1840.28  33.724  23.643
1840.78  33.724  23.581
1841.28  33.724  23.581
1841.78  33.724  23.581
1842.28  33.724  23.581
1842.78  33.724  23.550
1843.28  33.841  23.550
1843.78  33.841  23.581
1844.28  33.841  23.612
1844.78  33.724  23.581
1845.28  33.724  23.581
1845.78  33.957  23.581
1846.28  33.724  23.643
1846.78  33.841  23.581
1847.28  33.841  23.520
1847.78  33.841  23.550
1848.28  33.724  23.581
1848.78  33.724  23.612
1849.29  33.841  23.612
1849.79  34.074  23.520
1850.29  33.607  23.612
1850.79  33.841  23.612
1851.29  33.724  23.612
1851.79  33.724  23.550
1852.29  33.841  23.550
1852.79  33.841  23.550
1853.29  33.841  23.612
1853.79  33.841  23.581
1854.29  33.841  23.612
1854.79  33.724  23.581
1855.29  33.841  23.581
1855.79  33.841  23.581
1856.29  33.841  23.612
1856.79  33.724  23.581
1857.29  33.841  23.581
1857.79  33.957  23.550
1858.29  33.841  23.612
1858.79  33.841  23.643
1859.29  33.724  23.581
1859.79  33.724  23.581
1860.29  33.957  23.581
1860.79  33.841  23.550
1861.29  33.841  23.581
1861.79  33.957  23.581
1862.29  33.724  23.581
1862.79  33.724  23.581
1863.29  33.841  23.612
1863.79  33.841  23.581
1864.29  33.841  23.612
1864.79  33.841  23.581
1865.29  33.957  23.581
1865.79  33.841  23.612
1866.29  33.841  23.550
1866.79  33.957  23.550
1867.29  33.841  23.581
1867.79  33.841  23.581
1868.29  33.841  23.612
1868.79  33.841  23.612
1869.29  33.724  23.581
1869.79  33.841  23.581
1870.29  33.841  23.612
1870.79  33.957  23.612
1871.29  33.957  23.581
1871.79  33.841  23.581
1872.29  33.957  23.612
1872.79  33.841  23.612
1873.29  33.724  23.581
1873.79  33.841  23.612
1874.29  33.841  23.581
1874.79  33.841  23.612
1875.29  33.957  23.581
1875.79  34.074  23.581
1876.29  33.957  23.612
1876.79  33.841  23.612
1877.29  33.841  23.612
1877.79  33.957  23.612
1878.29  33.841  23.581
1878.79  33.841  23.581
1879.29  33.841  23.612
1879.79  33.957  23.581
1880.29  33.841  23.581
1880.79  33.841  23.581
1881.29  33.841  23.643
1881.79  33.841  23.612
1882.29  33.724  23.612
1882.79  33.841  23.581
1883.29  33.957  23.612
1883.79  33.841  23.643
1884.29  33.957  23.643
1884.79  33.957  23.612
1885.29  33.841  23.612
1885.79  33.724  23.612
1886.29  33.957  23.612
1886.79  33.957  23.612
1887.29  33.957  23.581
1887.79  33.957  23.581
1888.29  33.957  23.612
1888.79  33.841  23.643
1889.29  33.957  23.612
1889.79  33.841  23.612
1890.29  33.841  23.612
1890.79  33.957  23.612
1891.29  33.841  23.581
1891.79  33.957  23.581
1892.29  33.957  23.581
1892.79  33.724  23.581
1893.29  33.957  23.643
1893.79  33.957  23.612
1894.29  33.957  23.612
1894.79  34.074  23.550
1895.29  33.957  23.612
1895.79  33.957  23.612
1896.29  33.957  23.581
1896.79  33.841  23.612
1897.29  33.957  23.581
1897.79  33.957  23.612
1898.29  33.957  23.612
1898.79  33.957  23.612
1899.29  33.957  23.581
1899.79  33.957  23.612
1900.29  34.191  23.612
1900.79  33.957  23.612
1901.29  34.074  23.581
1901.79  33.957  23.612
1902.29  33.841  23.612
1902.79  33.957  23.612
1903.29  34.074  23.643
1903.79  33.841  23.581
1904.29  33.957  23.581
1904.79  33.957  23.581
1905.29  33.957  23.581
1905.79  34.074  23.612
1906.29  33.957  23.612
1906.79  33.957  23.612
1907.29  33.957  23.612
1907.79  33.957  23.612
1908.29  33.957  23.581
1908.79  33.841  23.612
1909.29  33.957  23.612
1909.79  33.957  23.581
1910.29  33.957  23.612
1910.79  33.957  23.612
1911.29  33.841  23.612
1911.79  33.957  23.612
1912.29  33.957  23.612
1912.79  33.841  23.612
1913.29  33.841  23.612
1913.79  33.957  23.612
1914.29  33.957  23.581
1914.79  34.074  23.612
1915.29  34.074  23.581
1915.79  33.957  23.612
1916.29  33.957  23.612
1916.79  33.957  23.581
1917.29  33.841  23.612
1917.79  33.957  23.612
1918.29  33.841  23.643
1918.79  33.957  23.612
1919.29  34.074  23.612
1919.79  33.957  23.581
1920.29  33.957  23.612
1920.79  33.841  23.581
1921.29  33.957  23.612
1921.79  33.957  23.612
1922.29  33.841  23.612
1922.79  33.841  23.612
1923.29  33.957  23.612
1923.79  34.074  23.612
1924.29  33.957  23.612
1924.79  33.957  23.581
1925.29  34.074  23.612
1925.79  34.074  23.612
1926.29  33.957  23.612
1926.79  33.957  23.612
1927.29  34.074  23.612
1927.79  34.191  23.612
1928.29  33.957  23.643
1928.79  34.074  23.643
1929.29  33.957  23.612
1929.79  33.957  23.643
1930.29  34.074  23.612
1930.79  33.957  23.643
1931.29  33.957  23.612
1931.79  34.191  23.612
1932.29  34.074  23.612
1932.79  33.957  23.612
1933.29  33.957  23.612
1933.79  34.074  23.550
1934.29  33.957  23.612
1934.79  33.957  23.612
1935.29  33.957  23.643
1935.79  34.074  23.612
1936.29  34.074  23.612
1936.79  34.074  23.612
1937.29  33.841  23.612
1937.79  33.957  23.612
1938.29  33.957  23.612
1938.79  33.957  23.612
1939.29  33.957  23.612
1939.79  33.957  23.612
1940.29  34.074  23.612
1940.79  33.957  23.612
1941.29  34.191  23.581
1941.79  34.074  23.612
1942.29  33.957  23.550
1942.79  33.957  23.581
1943.29  33.957  23.643
1943.79  33.957  23.612
1944.29  33.957  23.612
1944.79  34.074  23.612
1945.29  34.074  23.643
1945.79  34.074  23.612
1946.29  34.074  23.612
1946.79  34.074  23.612
1947.29  34.074  23.612
1947.79  33.957  23.581
1948.29  34.074  23.612
1948.79  34.074  23.612
1949.29  34.074  23.612
1949.79  34.074  23.643
1950.29  34.074  23.612
1950.79  33.957  23.612
1951.29  34.308  23.612
1951.79  34.074  23.612
1952.29  34.074  23.612
1952.79  33.957  23.612
1953.29  33.957  23.612
1953.79  34.074  23.581
1954.29  34.074  23.643
1954.79  34.074  23.612
1955.29  33.957  23.643
1955.79  34.074  23.612
1956.29  34.191  23.643
1956.79  33.957  23.643
1957.29  34.074  23.612
1957.79  34.074  23.612
1958.29  34.074  23.612
1958.79  34.074  23.612
1959.29  34.191  23.612
1959.79  34.074  23.643
1960.29  34.074  23.612
1960.79  34.074  23.643
1961.29  34.074  23.612
1961.79  34.074  23.612
1962.30  33.957  23.643
1962.80  34.074  23.612
1963.30  34.191  23.612
1963.80  34.074  23.674
1964.30  34.191  23.643
1964.80  34.074  23.643
1965.30  33.957  23.643
1965.80  34.074  23.612
1966.30  34.191  23.643
1966.80  33.957  23.643
1967.30  34.074  23.674
1967.80  34.191  23.643
1968.30  34.074  23.643
1968.80  34.074  23.612
1969.30  34.074  23.612
1969.80  34.191  23.643
1970.30  34.074  23.612
1970.80  34.074  23.643
1971.30  34.191  23.643
1971.80  33.957  23.612
1972.30  34.074  23.612
1972.80  34.074  23.612
1973.30  34.308  23.612
1973.80  34.074  23.612
1974.30  34.074  23.612
1974.80  34.074  23.612
1975.30  34.191  23.612
1975.80  34.074  23.643
1976.30  33.957  23.643
1976.80  34.074  23.581
1977.30  34.074  23.674
1977.80  34.074  23.612
1978.30  34.074  23.612
1978.80  33.957  23.643
1979.30  34.074  23.674
1979.80  34.191  23.612
1980.30  34.308  23.643
1980.80  34.074  23.612
1981.30  34.074  23.612
1981.80  34.191  23.643
1982.30  34.191  23.612
1982.80  33.957  23.612
1983.30  34.191  23.705
1983.80  34.191  23.643
1984.30  34.074  23.581
1984.80  34.074  23.643
1985.30  34.074  23.643
1985.80  34.074  23.643
1986.30  34.191  23.643
1986.80  34.191  23.643
1987.30  34.074  23.612
1987.80  34.191  23.643
1988.30  34.074  23.643
1988.80  34.191  23.643
1989.30  34.191  23.643
1989.80  34.191  23.612
1990.30  34.074  23.643
1990.80  33.957  23.612
1991.30  34.191  23.643
1991.80  34.074  23.612
1992.30  34.191  23.643
1992.80  34.191  23.643
1993.30  34.191  23.643
1993.80  34.074  23.643
1994.30  34.191  23.612
1994.80  34.191  23.612
1995.30  34.191  23.612
1995.80  34.074  23.612
1996.30  34.074  23.643
1996.80  34.074  23.612
1997.30  34.191  23.643
1997.80  34.308  23.612
1998.30  34.074  23.643
1998.80  34.191  23.643
1999.30  34.191  23.550
1999.80  34.191  23.643
2000.30  34.191  23.581
2000.80  34.191  23.643
2001.30  34.191  23.612
2001.80  34.074  23.612
2002.30  34.191  23.643
2002.80  34.074  23.612
2003.30  34.308  23.643
2003.80  34.191  23.643
2004.30  34.191  23.643
2004.80  34.191  23.643
2005.30  34.191  23.612
2005.80  34.191  23.643
2006.30  34.308  23.643
2006.80  34.191  23.612
2007.30  34.308  23.643
2007.80  34.191  23.612
2008.30  34.191  23.643
2008.80  34.074  23.643
2009.30  34.308  23.643
2009.80  34.308  23.643
2010.30  34.191  23.643
2010.80  34.308  23.643
2011.30  34.308  23.643
2011.80  34.308  23.643
2012.30  34.308  23.612
2012.80  34.191  23.612
2013.30  34.191  23.674
2013.80  34.191  23.674
2014.30  34.308  23.643
2014.80  34.191  23.612
2015.30  34.074  23.612
2015.80  34.074  23.674
2016.30  34.191  23.643
2016.80  34.308  23.643
2017.30  34.191  23.643
2017.80  34.191  23.612
2018.30  34.191  23.643
2018.80  34.074  23.581
2019.30  34.191  23.643
2019.80  34.074  23.612
2020.30  34.074  23.581
2020.80  34.191  23.643
2021.30  34.308  23.643
2021.80  34.074  23.612
2022.30  34.074  23.612
2022.80  34.191  23.674
2023.30  34.191  23.643
2023.80  34.074  23.735
2024.30  34.074  23.674
2024.80  34.191  23.643
2025.30  34.074  23.643
2025.80  34.191  23.643
2026.30  34.308  23.643
2026.80  34.308  23.674
2027.30  34.308  23.674
2027.80  34.074  23.674
2028.30  34.191  23.643
2028.80  34.191  23.643
2029.30  34.191  23.643
2029.80  34.191  23.643
2030.30  34.191  23.643
2030.80  34.308  23.643
2031.30  34.191  23.612
2031.80  34.191  23.643
2032.30  34.191  23.643
2032.80  34.191  23.643
2033.30  34.191  23.674
2033.80  34.308  23.643
2034.30  34.191  23.643
2034.80  34.191  23.643
2035.30  34.191  23.612
2035.80  34.191  23.643
2036.30  34.191  23.612
2036.80  34.308  23.643
2037.30  34.308  23.674
2037.80  34.074  23.643
2038.30  34.191  23.612
2038.80  34.191  23.581
2039.30  34.308  23.643
2039.80  34.191  23.643
2040.30  34.308  23.643
2040.80  34.191  23.643
2041.30  34.308  23.643
2041.80  34.308  23.643
2042.30  34.191  23.674
2042.80  34.308  23.643
2043.30  34.308  23.674
2043.80  34.191  23.643
2044.30  34.425  23.674
2044.80  34.308  23.643
2045.30  34.308  23.643
2045.80  34.308  23.643
2046.30  34.308  23.643
2046.80  34.191  23.674
2047.30  34.425  23.674
2047.80  34.308  23.643
2048.30  34.308  23.643
2048.80  34.425  23.643
2049.30  34.308  23.643
2049.80  34.308  23.674
2050.30  34.191  23.674
2050.80  34.425  23.643
2051.30  34.308  23.674
2051.80  34.308  23.643
2052.30  34.191  23.643
2052.80  34.308  23.612
2053.30  34.191  23.674
2053.80  34.191  23.674
2054.30  34.425  23.643
2054.80  34.191  23.674
2055.30  34.191  23.643
2055.80  34.191  23.674
2056.30  34.308  23.674
2056.80  34.308  23.643
2057.30  34.191  23.643
2057.80  34.191  23.612
2058.30  34.308  23.612
2058.80  34.191  23.643
2059.30  34.308  23.674
2059.80  34.308  23.674
2060.30  34.308  23.674
2060.80  34.425  23.674
2061.30  34.191  23.643
2061.80  34.425  23.612
2062.30  34.425  23.643
2062.80  34.308  23.674
2063.30  34.308  23.643
2063.80  34.191  23.674
2064.30  34.308  23.674
2064.80  34.308  23.612
2065.30  34.308  23.674
2065.80  34.191  23.643
2066.30  34.191  23.643
2066.80  34.308  23.612
2067.30  34.308  23.674
2067.80  34.425  23.674
2068.30  34.308  23.674
2068.80  34.308  23.643
2069.30  34.308  23.643
2069.80  34.308  23.674
2070.30  34.191  23.674
2070.80  34.425  23.643
2071.30  34.308  23.643
2071.80  34.191  23.643
2072.30  34.308  23.643
2072.80  34.308  23.612
2073.30  34.308  23.643
2073.80  34.425  23.674
2074.30  34.308  23.674
2074.80  34.191  23.643
2075.30  34.308  23.643
2075.80  34.308  23.674
2076.30  34.542  23.643
2076.80  34.308  23.705
2077.30  34.308  23.643
2077.80  34.308  23.643
2078.30  34.308  23.612
2078.80  34.191  23.643
2079.30  34.308  23.612
2079.80  34.308  23.674
2080.30  34.308  23.674
2080.80  34.308  23.643
2081.30  34.308  23.643
2081.80  34.308  23.643
2082.30  34.308  23.674
2082.80  34.191  23.674
2083.30  34.191  23.643
2083.80  34.425  23.643
2084.30  34.308  23.674
2084.80  34.308  23.643
2085.30  34.425  23.674
2085.80  34.191  23.643
2086.31  34.425  23.674
2086.81  34.308  23.674
2087.31  34.425  23.643
2087.81  34.425  23.674
2088.31  34.191  23.643
2088.81  34.542  23.674
2089.31  34.308  23.643
2089.81  34.542  23.674
2090.31  34.308  23.674
2090.81  34.308  23.674
2091.31  34.425  23.643
2091.81  34.425  23.643
2092.31  34.308  23.643
2092.81  34.308  23.674
2093.31  34.425  23.643
2093.81  34.425  23.612
2094.31  34.425  23.643
2094.81  34.425  23.612
2095.31  34.308  23.643
2095.81  34.308  23.674
2096.31  34.425  23.643
2096.81  34.425  23.674
2097.31  34.308  23.674
2097.81  34.425  23.674
2098.31  34.542  23.643
2098.81  34.308  23.643
2099.31  34.425  23.674
2099.81  34.191  23.674
2100.31  34.425  23.643
2100.81  34.425  23.705
2101.31  34.425  23.674
2101.81  34.425  23.674
2102.31  34.542  23.674
2102.81  34.425  23.674
2103.31  34.308  23.674
2103.81  34.425  23.674
2104.31  34.425  23.674
2104.81  34.308  23.643
2105.31  34.425  23.674
2105.81  34.308  23.674
2106.31  34.425  23.674
2106.81  34.425  23.643
2107.31  34.425  23.643
2107.81  34.425  23.612
2108.31  34.542  23.612
2108.81  34.425  23.674
2109.31  34.542  23.674
2109.81  34.425  23.643
2110.31  34.308  23.643
2110.81  34.659  23.674
2111.31  34.425  23.643
2111.81  34.425  23.674
2112.31  34.425  23.674
2112.81  34.425  23.643
2113.31  34.542  23.643
2113.81  34.425  23.643
2114.31  34.308  23.674
2114.81  34.074  23.643
2115.31  34.308  23.643
2115.81  34.425  23.643
2116.31  34.425  23.674
2116.81  34.425  23.643
2117.31  34.425  23.643
2117.81  34.425  23.643
2118.31  34.425  23.643
2118.81  34.425  23.643
2119.31  34.308  23.674
2119.81  34.308  23.643
2120.31  34.425  23.674
2120.81  34.425  23.643
2121.31  34.425  23.674
2121.81  34.425  23.643
2122.31  34.425  23.674
2122.81  34.425  23.674
2123.31  34.425  23.674
2123.81  34.542  23.612
2124.31  34.542  23.674
2124.81  34.542  23.674
2125.31  34.542  23.643
2125.81  34.425  23.674
2126.31  34.425  23.674
2126.81  34.425  23.674
2127.31  34.425  23.674
2127.81  34.542  23.643
2128.31  34.308  23.643
2128.81  34.542  23.674
2129.31  34.425  23.643
2129.81  34.425  23.674
2130.31  34.542  23.674
2130.81  34.425  23.674
2131.31  34.542  23.674
2131.81  34.542  23.674
2132.31  34.425  23.674
2132.81  34.542  23.674
2133.31  34.425  23.674
2133.81  34.425  23.705
2134.31  34.542  23.674
2134.81  34.425  23.643
2135.31  34.542  23.705
2135.81  34.542  23.643
2136.31  34.776  23.674
2136.81  34.425  23.705
2137.31  34.425  23.643
2137.81  34.542  23.674
2138.31  34.425  23.705
2138.81  34.542  23.705
2139.31  34.542  23.643
2139.81  34.425  23.643
2140.31  34.425  23.674
2140.81  34.542  23.643
2141.31  34.425  23.612
2141.81  34.425  23.705
2142.31  34.542  23.643
2142.81  34.542  23.674
2143.31  34.542  23.643
2143.81  34.425  23.643
2144.31  34.425  23.674
2144.81  34.542  23.705
2145.31  34.542  23.643
2145.81  34.425  23.674
2146.31  34.542  23.674
2146.81  34.425  23.705
2147.31  34.542  23.674
2147.81  34.659  23.705
2148.31  34.542  23.612
2148.81  34.425  23.674
2149.31  34.308  23.674
2149.81  34.542  23.674
2150.31  34.308  23.674
2150.81  34.659  23.674
2151.31  34.542  23.643
2151.81  34.425  23.643
2152.31  34.542  23.643
2152.81  34.542  23.705
2153.31  34.425  23.705
2153.81  34.542  23.889
2154.31  34.542  23.674
2154.81  34.425  23.674
2155.31  34.425  23.674
2155.81  34.425  23.705
2156.31  34.425  23.643
2156.81  34.542  23.643
2157.31  34.425  23.674
2157.81  34.542  23.674
2158.31  34.425  23.705
2158.81  34.542  23.674
2159.31  34.425  23.643
2159.81  34.425  23.643
2160.31  34.308  23.643
2160.81  34.542  23.643
2161.31  34.542  23.674
2161.81  34.425  23.643
2162.31  34.425  23.643
2162.81  34.542  23.674
2163.31  34.425  23.612
2163.81  34.659  23.705
2164.31  34.542  23.674
2164.81  34.542  23.705
2165.31  34.659  23.674
2165.81  34.425  23.643
2166.31  34.659  23.674
2166.81  34.425  23.674
2167.31  34.659  23.643
2167.81  34.425  23.705
2168.31  34.542  23.705
2168.81  34.542  23.705
2169.31  34.659  23.674
2169.81  34.659  23.674
2170.31  34.542  23.674
2170.81  34.542  23.643
2171.31  34.425  23.705
2171.81  34.542  23.674
2172.31  34.425  23.705
2172.81  34.659  23.674
2173.31  34.542  23.674
2173.81  34.542  23.674
2174.31  34.659  23.674
2174.81  34.425  23.674
2175.31  34.659  23.674
2175.81  34.659  23.643
2176.31  34.542  23.705
2176.81  34.425  23.674
2177.31  34.542  23.705
2177.81  34.542  23.674
2178.31  34.659  23.674
2178.81  34.542  23.674
2179.31  34.425  23.674
2179.81  34.542  23.674
2180.31  34.542  23.674
2180.81  34.542  23.705
2181.31  34.542  23.674
2181.81  34.542  23.674
2182.31  34.542  23.643
2182.81  34.542  23.674
2183.31  34.542  23.643
2183.81  34.425  23.674
2184.31  34.659  23.674
2184.81  34.659  23.705
2185.31  34.659  23.674
2185.81  34.542  23.643
2186.31  34.542  23.674
2186.81  34.542  23.643
2187.31  34.659  23.705
2187.81  34.308  23.705
2188.31  34.542  23.674
2188.82  34.659  23.735
2189.32  34.542  23.735
2189.82  34.659  23.674
2190.32  34.542  23.674
2190.82  34.659  23.674
2191.32  34.542  23.735
2191.82  34.659  23.674
2192.32  34.659  23.705
2192.82  34.542  23.674
2193.32  34.542  23.674
2193.82  34.542  23.674
2194.32  34.542  23.674
2194.82  34.542  23.705
2195.32  34.659  23.643
2195.82  34.425  23.705
2196.32  34.542  23.674
2196.82  34.892  23.674
2197.32  34.659  23.674
2197.82  34.659  23.674
2198.32  34.659  23.674
2198.82  34.776  23.674
2199.32  34.776  23.705
2199.82  34.659  23.643
2200.32  34.425  23.674
2200.82  34.542  23.705
2201.32  34.776  23.643
2201.82  34.659  23.705
2202.32  34.659  23.705
2202.82  34.776  23.674
2203.32  34.659  23.705
2203.82  34.542  23.674
2204.32  34.659  23.674
2204.82  34.659  23.674
2205.32  34.542  23.674
2205.82  34.659  23.705
2206.32  34.542  23.674
2206.82  34.542  23.674
2207.32  34.542  23.674
2207.82  34.659  23.643
2208.32  34.659  23.705
2208.82  34.659  23.705
2209.32  34.659  23.705
2209.82  34.659  23.674
2210.32  34.776  23.674
2210.82  34.659  23.735
2211.32  34.659  23.705
2211.82  34.659  23.674
2212.32  34.542  23.674
2212.82  34.776  23.674
2213.32  34.659  23.705
2213.82  34.542  23.705
2214.32  34.542  23.674
2214.82  34.542  23.735
2215.32  34.542  23.674
2215.82  34.776  23.643
2216.32  34.425  23.735
2216.82  34.659  23.705
2217.32  34.659  23.674
2217.82  34.659  23.674
2218.32  34.659  23.674
2218.82  34.659  23.674
2219.32  34.542  23.643
2219.82  34.659  23.735
2220.32  34.659  23.674
2220.82  34.659  23.674
2221.32  34.542  23.674
2221.82  34.659  23.705
2222.32  34.659  23.674
2222.82  34.659  23.705
2223.32  34.659  23.674
2223.82  34.776  23.674
2224.32  34.659  23.674
2224.82  34.659  23.674
2225.32  34.659  23.674
2225.82  34.659  23.674
2226.32  34.659  23.674
2226.82  34.659  23.674
2227.32  34.542  23.705
2227.82  34.659  23.674
2228.32  34.542  23.674
2228.82  34.776  23.674
2229.32  34.892  23.674
2229.82  34.659  23.705
2230.32  34.659  23.705
2230.82  34.659  23.705
2231.32  34.892  23.674
2231.82  34.659  23.705
2232.32  34.542  23.705
2232.82  34.659  23.705
2233.32  34.776  23.705
2233.82  34.659  23.674
2234.32  34.659  23.705
2234.82  34.659  23.643
2235.32  34.659  23.705
2235.82  34.776  23.674
2236.32  34.659  23.705
2236.82  35.005  23.674
2237.32  34.659  23.674
2237.82  34.659  23.705
2238.32  34.542  23.705
2238.82  34.776  23.705
2239.32  34.776  23.705
2239.82  34.425  23.705
2240.32  34.659  23.735
2240.82  34.659  23.705
2241.32  34.776  23.705
2241.82  34.776  23.674
2242.32  34.659  23.735
2242.82  34.776  23.674
2243.32  34.542  23.735
2243.82  34.776  23.674
2244.32  34.776  23.705
2244.82  34.776  23.705
2245.32  34.659  23.674
2245.82  34.659  23.705
2246.32  34.776  23.705
2246.82  34.659  23.705
2247.32  34.659  23.705
2247.82  34.776  23.674
2248.32  34.659  23.674
2248.82  34.776  23.705
2249.32  34.776  23.705
2249.82  34.659  23.674
2250.32  34.659  23.674
2250.82  34.659  23.674
2251.32  34.776  23.705
2251.82  34.659  23.705
2252.32  34.776  23.705
2252.82  34.542  23.674
2253.32  34.659  23.674
2253.82  34.776  23.705
2254.32  34.659  23.674
2254.82  34.776  23.705
2255.32  34.659  23.705
2255.82  34.659  23.705
2256.32  34.659  23.705
2256.82  34.542  23.674
2257.32  34.659  23.674
2257.82  34.659  23.674
2258.32  34.659  23.705
2258.82  34.892  23.705
2259.32  34.659  23.643
2259.82  34.659  23.643
2260.32  34.776  23.674
2260.82  34.776  23.674
2261.32  34.776  23.674
2261.82  34.659  23.735
2262.32  34.659  23.674
2262.82  34.659  23.705
2263.32  34.659  23.705
2263.82  34.776  23.705
2264.32  34.776  23.674
2264.82  34.659  23.705
2265.32  34.776  23.674
2265.82  34.776  23.705
2266.32  35.005  23.705
2266.82  34.542  23.705
2267.32  34.659  23.705
2267.82  34.776  23.705
2268.32  34.659  23.735
2268.82  34.659  23.735
2269.32  34.776  23.674
2269.82  34.892  23.705
2270.32  34.892  23.705
2270.82  34.892  23.705
2271.32  34.892  23.735
2271.82  34.776  23.766
2272.32  34.892  23.674
2272.82  34.776  23.705
2273.32  34.892  23.705
2273.82  34.776  23.674
2274.32  34.776  23.674
2274.82  34.776  23.674
2275.32  34.892  23.705
2275.82  34.892  23.705
2276.32  34.892  23.705
2276.82  34.776  23.674
2277.32  34.892  23.674
2277.82  34.776  23.705
2278.32  34.776  23.674
2278.82  34.892  23.735
2279.32  34.776  23.705
2279.82  34.659  23.705
2280.32  34.892  23.674
2280.82  34.892  23.705
2281.32  34.776  23.705
2281.82  34.659  23.705
2282.32  34.776  23.674
2282.82  34.776  23.705
2283.32  34.776  23.705
2283.82  34.892  23.674
2284.32  34.776  23.705
2284.82  34.776  23.705
2285.32  34.776  23.705
2285.82  34.776  23.674
2286.32  34.776  23.674
2286.82  34.776  23.705
2287.32  34.892  23.674
2287.82  34.776  23.705
2288.32  34.892  23.674
2288.82  34.892  23.674
2289.32  34.776  23.705
2289.82  34.776  23.674
2290.32  34.776  23.674
2290.82  34.659  23.705
2291.32  34.776  23.705
2291.82  34.776  23.674
2292.32  34.776  23.705
2292.82  34.776  23.705
2293.32  34.659  23.674
2293.82  34.892  23.674
2294.32  34.776  23.705
2294.82  34.776  23.643
2295.32  34.776  23.705
2295.82  34.892  23.674
2296.32  34.892  23.705
2296.82  34.659  23.705
2297.32  34.776  23.705
2297.82  34.776  23.705
2298.32  34.892  23.674
2298.82  34.892  23.705
2299.32  34.892  23.735
2299.82  34.776  23.674
2300.32  34.776  23.705
2300.82  34.776  23.705
2301.32  34.776  23.674
2301.82  34.776  23.705
2302.32  34.776  23.705
2302.82  34.776  23.705
2303.32  34.776  23.705
2303.82  34.892  23.705
2304.32  34.776  23.705
2304.82  34.776  23.674
2305.32  34.776  23.705
2305.82  34.776  23.705
2306.32  34.776  23.705
2306.82  34.892  23.705
2307.32  35.005  23.735
2307.82  34.776  23.705
2308.32  34.776  23.735
2308.82  34.776  23.705
2309.32  34.892  23.705
2309.82  34.659  23.705
2310.32  34.776  23.705
2310.82  34.776  23.705
2311.32  34.776  23.705
2311.82  34.776  23.705
2312.32  34.776  23.674
2312.83  35.005  23.705
2313.33  35.005  23.674
2313.83  34.776  23.705
2314.33  34.776  23.674
2314.83  34.776  23.674
2315.33  34.776  23.705
2315.83  34.659  23.705
2316.33  34.659  23.705
2316.83  34.892  23.705
2317.33  34.659  23.705
2317.83  35.005  23.674
2318.33  34.776  23.735
2318.83  34.892  23.674
2319.33  34.892  23.705
2319.83  34.892  23.705
2320.33  34.776  23.705
2320.83  34.892  23.705
2321.33  34.776  23.705
2321.83  34.892  23.705
2322.33  34.776  23.705
2322.83  34.892  23.674
2323.33  34.892  23.705
2323.83  34.892  23.705
2324.33  34.776  23.705
2324.83  35.005  23.705
2325.33  34.776  23.674
2325.83  34.892  23.705
2326.33  34.892  23.735
2326.83  34.892  23.705
2327.33  34.776  23.705
2327.83  34.892  23.735
2328.33  34.892  23.674
2328.83  34.892  23.735
2329.33  34.892  23.735
2329.83  35.069  23.705
2330.33  34.776  23.705
2330.83  34.892  23.705
2331.33  35.005  23.735
2331.83  35.005  23.705
2332.33  34.892  23.705
2332.83  34.659  23.705
2333.33  34.892  23.766
2333.83  34.776  23.705
2334.33  34.776  23.705
2334.83  34.776  23.705
2335.33  34.892  23.735
2335.83  34.659  23.674
2336.33  34.892  23.735
2336.83  34.892  23.735
2337.33  35.005  23.705
2337.83  34.892  23.735
2338.33  34.892  23.735
2338.83  34.892  23.705
2339.33  35.005  23.705
2339.83  34.892  23.735
2340.33  34.892  23.705
2340.83  34.776  23.705
2341.33  34.776  23.735
2341.83  35.005  23.705
2342.33  34.892  23.705
2342.83  34.776  23.735
2343.33  34.892  23.705
2343.83  34.776  23.705
2344.33  34.892  23.705
2344.83  34.892  23.735
2345.33  34.892  23.705
2345.83  34.776  23.735
2346.33  35.005  23.735
2346.83  34.776  23.735
2347.33  34.892  23.735
2347.83  35.005  23.735
2348.33  35.005  23.735
2348.83  34.776  23.735
2349.33  34.892  23.735
2349.83  34.892  23.705
2350.33  35.005  23.735
2350.83  34.892  23.735
2351.33  34.892  23.705
2351.83  34.892  23.705
2352.33  35.005  23.705
2352.83  35.005  23.735
2353.33  34.892  23.705
2353.83  35.005  23.674
2354.33  34.892  23.735
2354.83  34.776  23.705
2355.33  34.892  23.705
2355.83  34.892  23.735
2356.33  34.892  23.705
2356.83  34.892  23.705
2357.33  34.892  23.705
2357.83  34.776  23.735
2358.33  35.005  23.735
2358.83  34.776  23.735
2359.33  34.892  23.705
2359.83  35.005  23.735
2360.33  34.892  23.735
2360.83  34.892  23.705
2361.33  34.892  23.766
2361.83  35.005  23.735
2362.33  34.776  23.705
2362.83  34.892  23.735
2363.33  34.776  23.735
2363.83  34.892  23.674
2364.33  34.776  23.705
2364.83  34.892  23.735
2365.33  35.005  23.705
2365.83  34.892  23.705
2366.33  34.892  23.735
2366.83  35.069  23.735
2367.33  34.892  23.705
2367.83  34.892  23.735
2368.33  34.892  23.735
2368.83  34.892  23.705
2369.33  34.892  23.705
2369.83  34.892  23.705
2370.33  34.892  23.705
2370.83  34.892  23.735
2371.33  35.005  23.735
2371.83  34.892  23.735
2372.33  35.005  23.705
2372.83  34.892  23.705
2373.33  34.892  23.705
2373.83  34.892  23.705
2374.33  34.892  23.735
2374.83  34.892  23.705
2375.33  35.069  23.705
2375.83  34.892  23.705
2376.33  35.005  23.735
2376.83  34.892  23.705
2377.33  34.892  23.735
2377.83  35.005  23.735
2378.33  35.005  23.735
2378.83  34.892  23.735
2379.33  35.005  23.735
2379.83  34.892  23.735
2380.33  34.892  23.766
2380.83  34.892  23.735
2381.33  35.005  23.735
2381.83  35.005  23.705
2382.33  35.005  23.705
2382.83  34.776  23.766
2383.33  34.892  23.705
2383.83  34.892  23.705
2384.33  35.005  23.705
2384.83  35.005  23.674
2385.33  35.005  23.735
2385.83  35.005  23.735
2386.33  35.005  23.766
2386.83  34.892  23.735
2387.33  35.005  23.735
2387.83  34.892  23.705
2388.33  35.005  23.735
2388.83  35.005  23.735
2389.33  35.005  23.735
2389.83  35.069  23.705
2390.33  35.005  23.705
2390.83  35.005  23.735
2391.33  35.005  23.766
2391.83  35.069  23.705
2392.33  34.892  23.735
2392.83  35.005  23.705
2393.33  35.005  23.735
2393.83  35.005  23.735
2394.33  35.005  23.735
2394.83  35.069  23.797
2395.33  34.776  23.735
2395.83  34.892  23.735
2396.33  35.005  23.735
2396.83  34.892  23.735
2397.33  34.892  23.674
2397.83  34.892  23.735
2398.33  35.005  23.735
2398.83  35.069  23.735
2399.33  34.892  23.735
2399.83  35.005  23.735
2400.33  35.005  23.766
2400.83  35.069  23.705
2401.33  35.005  23.705
2401.83  35.069  23.735
2402.33  35.005  23.735
2402.83  35.005  23.735
2403.33  35.069  23.735
2403.83  35.069  23.766
2404.33  35.069  23.766
2404.83  35.005  23.735
2405.33  35.005  23.735
2405.83  35.069  23.735
2406.33  35.005  23.705
2406.83  35.005  23.735
2407.33  35.005  23.797
2407.83  34.892  23.735
2408.33  35.005  23.766
2408.83  35.005  23.735
2409.33  35.005  23.735
2409.83  35.005  23.766
2410.33  35.005  23.705
2410.83  35.005  23.735
2411.33  35.005  23.766
2411.83  34.776  23.735
2412.33  35.005  23.735
2412.83  35.005  23.705
2413.33  35.069  23.705
2413.83  35.069  23.735
2414.33  35.005  23.735
2414.84  35.005  23.735
2415.34  35.005  23.735
2415.84  35.069  23.735
2416.34  35.005  23.735
2416.84  35.005  23.766
2417.34  35.005  23.766
2417.84  35.069  23.735
2418.34  35.005  23.766
2418.84  35.005  23.766
2419.34  35.005  23.735
2419.84  35.005  23.766
2420.34  35.069  23.735
2420.84  35.005  23.705
2421.34  35.069  23.735
2421.84  35.069  23.766
2422.34  35.005  23.735
2422.84  35.069  23.705
2423.34  35.005  23.735
2423.84  35.069  23.735
2424.34  35.005  23.705
2424.84  35.005  23.705
2425.34  35.069  23.766
2425.84  35.069  23.705
2426.34  35.069  23.735
2426.84  35.069  23.735
2427.34  34.892  23.735
2427.84  35.005  23.705
2428.34  35.005  23.735
2428.84  35.069  23.766
2429.34  35.005  23.766
2429.84  35.069  23.735
2430.34  35.069  23.797
2430.84  35.005  23.735
2431.34  35.005  23.705
2431.84  35.069  23.735
2432.34  35.069  23.766
2432.84  35.069  23.735
2433.34  35.005  23.735
2433.84  35.069  23.735
2434.34  35.005  23.735
2434.84  35.069  23.735
2435.34  35.005  23.735
2435.84  35.005  23.705
2436.34  35.133  23.766
2436.84  35.005  23.766
2437.34  35.005  23.735
2437.84  34.892  23.705
2438.34  35.069  23.766
2438.84  35.005  23.766
2439.34  35.005  23.797
2439.84  35.005  23.735
2440.34  35.005  23.766
2440.84  35.069  23.766
2441.34  35.069  23.797
2441.84  35.069  23.705
2442.34  35.069  23.735
2442.84  35.005  23.735
2443.34  35.133  23.735
2443.84  35.133  23.735
2444.34  35.133  23.735
2444.84  35.069  23.766
2445.34  35.069  23.735
2445.84  35.069  23.735
2446.34  35.069  23.705
2446.84  35.069  23.766
2447.34  35.133  23.735
2447.84  35.069  23.735
2448.34  35.133  23.735
2448.84  35.069  23.735
2449.34  35.133  23.766
2449.84  35.069  23.735
2450.34  35.069  23.766
2450.84  35.005  23.735
2451.34  35.069  23.766
2451.84  35.069  23.766
2452.34  35.005  23.735
2452.84  35.069  23.735
2453.34  35.069  23.766
2453.84  35.069  23.735
2454.34  35.069  23.766
2454.84  35.069  23.735
2455.34  35.069  23.766
2455.84  35.069  23.735
2456.34  35.069  23.735
2456.84  35.069  23.735
2457.34  35.069  23.766
2457.84  35.005  23.735
2458.34  35.069  23.735
2458.84  35.069  23.735
2459.34  35.069  23.735
2459.84  35.005  23.735
2460.34  35.069  23.705
2460.84  35.005  23.766
2461.34  35.069  23.735
2461.84  35.133  23.766
2462.34  35.069  23.735
2462.84  35.133  23.735
2463.34  35.069  23.766
2463.84  35.069  23.766
2464.34  35.069  23.766
2464.84  35.069  23.766
2465.34  35.005  23.766
2465.84  35.069  23.735
2466.34  35.069  23.735
2466.84  35.069  23.766
2467.34  35.133  23.766
2467.84  35.069  23.766
2468.34  35.133  23.766
2468.84  35.069  23.766
2469.34  35.069  23.735
2469.84  35.069  23.735
2470.34  35.133  23.735
2470.84  35.069  23.735
2471.34  35.133  23.766
2471.84  34.892  23.735
2472.34  35.197  23.735
2472.84  35.069  23.735
2473.34  35.069  23.766
2473.84  35.133  23.766
2474.34  35.005  23.766
2474.84  35.133  23.766
2475.34  35.133  23.797
2475.84  35.069  23.735
2476.34  35.069  23.766
2476.84  35.069  23.705
2477.34  35.005  23.766
2477.84  35.005  23.797
2478.34  35.069  23.735
2478.84  35.069  23.766
2479.34  35.069  23.674
2479.84  35.069  23.735
2480.34  35.069  23.735
2480.84  35.069  23.735
2481.34  35.005  23.766
2481.84  35.197  23.797
2482.34  35.069  23.766
2482.84  35.133  23.735
2483.34  35.133  23.735
2483.84  35.069  23.735
2484.34  35.133  23.766
2484.84  35.133  23.766
2485.34  35.069  23.766
2485.84  35.133  23.766
2486.34  35.133  23.766
2486.84  35.197  23.766
2487.34  35.133  23.797
2487.84  35.005  23.766
2488.34  35.133  23.735
2488.84  35.133  23.766
2489.34  35.133  23.735
2489.84  35.197  23.735
2490.34  35.133  23.735
2490.84  35.133  23.766
2491.34  35.197  23.705
2491.84  35.133  23.766
2492.34  35.133  23.797
2492.84  35.133  23.766
2493.34  35.005  23.766
2493.84  35.133  23.766
2494.34  35.005  23.766
2494.84  35.069  23.766
2495.34  35.069  23.797
2495.84  35.069  23.797
2496.34  35.133  23.735
2496.84  35.005  23.766
2497.34  35.133  23.735
2497.84  35.005  23.735
2498.34  35.133  23.766
2498.84  35.133  23.735
2499.34  35.069  23.705
2499.84  35.069  23.766
2500.34  35.069  23.797
2500.84  35.133  23.766
2501.34  35.133  23.766
2501.84  35.069  23.705
2502.34  35.133  23.828
2502.84  35.133  23.766
