   2.00  23.905  23.458
   2.50  23.931  23.427
   3.00  23.931  23.458
   3.50  23.931  23.458
   4.00  23.931  23.427
   4.50  23.931  23.458
   5.00  23.931  23.458
   5.50  23.905  23.458
   6.00  23.905  23.458
   6.50  23.931  23.458
   7.00  23.931  23.396
   7.50  23.931  23.489
   8.00  23.931  23.458
   8.50  23.905  23.458
   9.00  23.931  23.458
   9.50  23.931  23.489
  10.00  23.931  23.427
  10.50  23.931  23.489
  11.00  23.931  23.489
  11.50  23.931  23.489
  12.00  23.931  23.520
  12.50  23.931  23.489
  13.00  23.931  23.520
  13.50  23.931  23.489
  14.00  23.957  23.458
  14.50  23.957  23.458
  15.00  23.931  23.489
  15.50  23.931  23.458
  16.00  23.957  23.458
  16.50  23.905  23.458
  17.00  23.957  23.489
  17.50  23.957  23.520
  18.00  23.957  23.489
  18.50  23.983  23.489
  19.00  24.009  23.489
  19.50  24.035  23.489
  20.00  24.035  23.489
  20.50  24.009  23.489
  21.00  24.009  23.458
  21.50  24.035  23.520
  22.00  24.035  23.489
  22.50  24.035  23.489
  23.00  24.035  23.489
  23.50  24.035  23.489
  24.00  24.035  23.489
  24.50  24.035  23.489
  25.00  24.061  23.489
  25.50  24.087  23.520
  26.00  24.087  23.489
  26.50  24.087  23.520
  27.00  24.113  23.489
  27.50  24.140  23.489
  28.00  24.087  23.520
  28.50  24.113  23.489
  29.00  24.087  23.489
  29.50  24.113  23.489
  30.00  24.113  23.520
  30.50  24.113  23.489
  31.00  24.140  23.489
  31.50  24.140  23.489
  32.00  24.166  23.489
  32.50  24.192  23.489
  33.00  24.192  23.489
  33.50  24.192  23.520
  34.00  24.166  23.520
  34.50  24.218  23.489
  35.00  24.218  23.520
  35.50  24.218  23.458
  36.00  24.218  23.520
  36.50  24.244  23.489
  37.00  24.244  23.520
  37.50  24.270  23.458
  38.00  24.244  23.520
  38.50  24.270  23.550
  39.00  24.270  23.489
  39.50  24.270  23.489
  40.00  24.296  23.489
  40.50  24.270  23.520
  41.00  24.296  23.520
  41.50  24.348  23.489
  42.00  24.348  23.520
  42.50  24.296  23.489
  43.00  24.375  23.550
  43.50  24.348  23.520
  44.00  24.348  23.581
  44.50  24.401  23.489
  45.00  24.348  23.489
  45.50  24.375  23.489
  46.00  24.375  23.550
  46.50  24.375  23.489
  47.00  24.375  23.520
  47.51  24.375  23.520
  48.01  24.401  23.520
  48.51  24.401  23.489
  49.01  24.453  23.489
  49.51  24.401  23.550
  50.01  24.427  23.520
  50.51  24.427  23.489
  51.01  24.453  23.520
  51.51  24.479  23.520
  52.01  24.453  23.520
  52.51  24.453  23.489
  53.01  24.479  23.520
  53.51  24.505  23.520
  54.01  24.505  23.489
  54.51  24.505  23.520
  55.01  24.479  23.489
  55.51  24.531  23.520
  56.01  24.505  23.550
  56.51  24.531  23.550
  57.01  24.531  23.550
  57.51  24.531  23.550
  58.01  24.557  23.520
  58.51  24.583  23.520
  59.01  24.531  23.520
  59.51  24.557  23.550
  60.01  24.557  23.520
  60.51  24.583  23.550
  61.01  24.583  23.520
  61.51  24.583  23.520
  62.01  24.583  23.458
  62.51  24.636  23.458
  63.01  24.636  23.550
  63.51  24.610  23.520
  64.01  24.610  23.520
  64.51  24.610  23.520
  65.01  24.636  23.581
  65.51  24.636  23.520
  66.01  24.636  23.520
  66.51  24.662  23.520
  67.01  24.636  23.550
  67.51  24.662  23.520
  68.01  24.636  23.489
  68.51  24.662  23.520
  69.01  24.688  23.520
  69.51  24.714  23.520
  70.01  24.740  23.489
  70.51  24.714  23.458
  71.01  24.714  23.550
  71.51  24.714  23.520
  72.01  24.766  23.520
  72.51  24.766  23.520
  73.01  24.766  23.550
  73.51  24.740  23.520
  74.01  24.766  23.520
  74.51  24.792  23.489
  75.01  24.766  23.520
  75.51  24.740  23.550
  76.01  24.766  23.550
  76.51  24.766  23.520
  77.01  24.819  23.520
  77.51  24.792  23.520
  78.01  24.792  23.520
  78.51  24.792  23.520
  79.01  24.845  23.520
  79.51  24.819  23.520
  80.01  24.819  23.489
  80.51  24.819  23.550
  81.01  24.845  23.489
  81.51  24.845  23.520
  82.01  24.871  23.520
  82.51  24.845  23.520
  83.01  24.871  23.520
  83.51  24.845  23.520
  84.01  24.845  23.489
  84.51  24.871  23.520
  85.01  24.897  23.550
  85.51  24.897  23.489
  86.01  24.923  23.489
  86.51  24.897  23.489
  87.01  24.923  23.520
  87.51  24.923  23.520
  88.01  24.923  23.489
  88.51  24.923  23.550
  89.01  24.949  23.520
  89.51  24.923  23.520
  90.01  24.949  23.520
  90.51  24.949  23.520
  91.01  24.975  23.550
  91.51  24.975  23.520
  92.01  24.975  23.550
  92.51  24.975  23.489
  93.01  25.114  23.550
  93.51  25.005  23.550
  94.01  24.975  23.489
  94.51  25.005  23.550
  95.01  24.975  23.520
  95.51  25.005  23.550
  96.01  25.222  23.520
  96.51  25.005  23.520
  97.01  25.114  23.520
  97.51  25.005  23.550
  98.01  25.005  23.520
  98.51  25.005  23.520
  99.01  25.330  23.520
  99.51  25.222  23.550
 100.01  25.222  23.550
 100.51  25.222  23.550
 101.01  25.330  23.520
 101.51  25.330  23.489
 102.01  25.330  23.550
 102.51  25.330  23.520
 103.01  25.222  23.550
 103.51  25.330  23.550
 104.01  25.330  23.550
 104.51  25.330  23.520
 105.01  25.438  23.550
 105.51  25.438  23.520
 106.01  25.438  23.581
 106.51  25.547  23.550
 107.01  25.547  23.550
 107.51  25.547  23.520
 108.01  25.655  23.550
 108.51  25.547  23.550
 109.01  25.655  23.550
 109.51  25.547  23.550
 110.01  25.763  23.520
 110.51  25.655  23.520
 111.01  25.655  23.550
 111.51  25.763  23.520
 112.01  25.763  23.550
 112.51  25.763  23.550
 113.01  25.763  23.520
 113.51  25.763  23.520
 114.01  25.980  23.520
 114.51  25.763  23.520
 115.01  25.871  23.550
 115.51  25.871  23.520
 116.01  25.763  23.520
 116.51  25.980  23.550
 117.01  25.871  23.550
 117.51  25.871  23.550
 118.01  25.871  23.550
 118.51  26.088  23.520
 119.01  25.980  23.550
 119.51  25.980  23.550
 120.01  25.980  23.489
 120.51  25.980  23.550
 121.01  25.980  23.520
 121.51  26.088  23.520
 122.01  26.088  23.489
 122.51  26.088  23.550
 123.01  26.196  23.550
 123.51  26.196  23.520
 124.01  26.196  23.489
 124.51  26.304  23.550
 125.01  26.304  23.550
 125.51  26.196  23.550
 126.01  26.196  23.550
 126.51  26.304  23.581
 127.01  26.304  23.550
 127.51  26.196  23.520
 128.01  26.413  23.581
 128.51  26.413  23.520
 129.01  26.413  23.520
 129.51  26.413  23.550
 130.01  26.413  23.550
 130.51  26.521  23.520
 131.01  26.521  23.550
 131.51  26.521  23.550
 132.01  26.737  23.550
 132.51  26.629  23.550
 133.01  26.629  23.550
 133.51  26.629  23.550
 134.01  26.521  23.550
 134.51  26.737  23.581
 135.01  26.629  23.550
 135.51  26.737  23.550
 136.01  26.629  23.550
 136.51  26.737  23.550
 137.01  26.629  23.550
 137.51  26.629  23.550
 138.01  26.629  23.550
 138.51  26.629  23.581
 139.01  26.846  23.520
 139.51  26.846  23.550
 140.01  26.629  23.520
 140.51  26.737  23.550
 141.01  26.846  23.550
 141.51  26.737  23.550
 142.01  26.846  23.550
 142.51  26.737  23.550
 143.01  26.846  23.550
 143.51  26.954  23.581
 144.01  26.846  23.550
 144.51  26.846  23.550
 145.01  26.846  23.520
 145.51  26.954  23.520
 146.01  26.954  23.581
 146.51  27.062  23.550
 147.01  26.954  23.550
 147.51  26.954  23.581
 148.01  26.846  23.550
 148.51  26.954  23.550
 149.01  27.062  23.550
 149.51  27.062  23.550
 150.01  27.062  23.550
 150.51  27.170  23.550
 151.01  27.170  23.550
 151.51  27.170  23.581
 152.01  27.170  23.550
 152.51  27.279  23.612
 153.01  27.170  23.550
 153.51  27.170  23.550
 154.01  27.170  23.550
 154.51  27.279  23.550
 155.01  27.279  23.550
 155.51  27.170  23.550
 156.01  27.170  23.550
 156.51  27.279  23.520
 157.01  27.279  23.550
 157.51  27.279  23.550
 158.01  27.387  23.550
 158.51  27.387  23.581
 159.01  27.279  23.550
 159.51  27.387  23.550
 160.01  27.387  23.550
 160.51  27.495  23.550
 161.01  27.495  23.581
 161.51  27.495  23.581
 162.01  27.495  23.581
 162.51  27.495  23.550
 163.01  27.495  23.550
 163.51  27.495  23.581
 164.01  27.495  23.550
 164.51  27.495  23.550
 165.01  27.603  23.550
 165.51  27.712  23.581
 166.01  27.603  23.520
 166.51  27.603  23.550
 167.01  27.603  23.550
 167.51  27.603  23.550
 168.01  27.712  23.581
 168.51  27.712  23.581
 169.01  27.603  23.550
 169.51  27.712  23.550
 170.01  27.712  23.550
 170.51  27.712  23.550
 171.01  27.820  23.550
 171.52  27.712  23.550
 172.02  27.820  23.550
 172.52  27.928  23.520
 173.02  27.820  23.550
 173.52  27.820  23.581
 174.02  27.820  23.581
 174.52  27.820  23.550
 175.02  27.820  23.550
 175.52  27.928  23.581
 176.02  27.928  23.550
 176.52  27.928  23.612
 177.02  27.712  23.550
 177.52  27.928  23.550
 178.02  27.928  23.581
 178.52  28.253  23.581
 179.02  27.928  23.612
 179.52  27.928  23.520
 180.02  28.036  23.550
 180.52  28.145  23.550
 181.02  28.036  23.581
 181.52  28.036  23.550
 182.02  28.145  23.612
 182.52  28.145  23.581
 183.02  28.145  23.581
 183.52  28.145  23.581
 184.02  28.145  23.550
 184.52  28.145  23.581
 185.02  28.253  23.550
 185.52  28.361  23.581
 186.02  28.145  23.550
 186.52  28.253  23.581
 187.02  28.145  23.581
 187.52  28.253  23.581
 188.02  28.253  23.550
 188.52  28.253  23.550
 189.02  28.253  23.550
 189.52  28.361  23.550
 190.02  28.361  23.612
 190.52  28.361  23.550
 191.02  28.361  23.520
 191.52  28.253  23.520
 192.02  28.469  23.550
 192.52  28.469  23.550
 193.02  28.361  23.581
 193.52  28.469  23.550
 194.02  28.361  23.550
 194.52  28.361  23.581
 195.02  28.469  23.612
 195.52  28.469  23.550
 196.02  28.361  23.581
 196.52  28.469  23.550
 197.02  28.361  23.550
 197.52  28.253  23.550
 198.02  28.469  23.550
 198.52  28.361  23.550
 199.02  28.578  23.550
 199.52  28.578  23.520
 200.02  28.469  23.550
 200.52  28.686  23.581
 201.02  28.578  23.581
 201.52  28.578  23.489
 202.02  28.578  23.581
 202.52  28.686  23.581
 203.02  28.578  23.550
 203.52  28.578  23.550
 204.02  28.686  23.550
 204.52  28.794  23.550
 205.02  28.686  23.550
 205.52  28.902  23.550
 206.02  28.794  23.581
 206.52  28.686  23.550
 207.02  28.794  23.581
 207.52  28.686  23.581
 208.02  28.794  23.581
 208.52  28.902  23.581
 209.02  28.794  23.550
 209.52  28.902  23.581
 210.02  28.794  23.581
 210.52  28.902  23.581
 211.02  28.902  23.581
 211.52  28.902  23.550
 212.02  28.902  23.612
 212.52  29.011  23.581
 213.02  28.902  23.581
 213.52  29.335  23.612
 214.02  29.011  23.550
 214.52  28.902  23.581
 215.02  29.011  23.612
 215.52  29.227  23.612
 216.02  29.119  23.581
 216.52  28.902  23.550
 217.02  29.119  23.581
 217.52  29.119  23.581
 218.02  29.119  23.581
 218.52  29.227  23.581
 219.02  29.119  23.581
 219.52  29.119  23.550
 220.02  29.119  23.581
 220.52  29.119  23.550
 221.02  29.119  23.581
 221.52  29.011  23.550
 222.02  29.011  23.581
 222.52  29.119  23.550
 223.02  29.119  23.581
 223.52  29.227  23.550
 224.02  29.119  23.581
 224.52  29.227  23.550
 225.02  29.227  23.581
 225.52  29.227  23.550
 226.02  29.119  23.612
 226.52  29.335  23.550
 227.02  29.335  23.581
 227.52  29.227  23.550
 228.02  29.335  23.581
 228.52  29.335  23.550
 229.02  29.335  23.550
 229.52  29.335  23.581
 230.02  29.444  23.581
 230.52  29.335  23.612
 231.02  29.444  23.612
 231.52  29.444  23.581
 232.02  29.444  23.581
 232.52  29.552  23.581
 233.02  29.444  23.581
 233.52  29.660  23.581
 234.02  29.552  23.581
 234.52  29.444  23.581
 235.02  29.444  23.581
 235.52  29.660  23.581
 236.02  29.552  23.550
 236.52  29.552  23.581
 237.02  29.552  23.550
 237.52  29.444  23.581
 238.02  29.552  23.581
 238.52  29.660  23.550
 239.02  29.660  23.612
 239.52  29.660  23.550
 240.02  29.660  23.581
 240.52  29.660  23.674
 241.02  29.768  23.550
 241.52  29.660  23.581
 242.02  29.660  23.581
 242.52  29.768  23.581
 243.02  29.768  23.581
 243.52  29.660  23.550
 244.02  29.768  23.581
 244.52  29.768  23.581
 245.02  29.660  23.581
 245.52  29.768  23.612
 246.02  29.768  23.581
 246.52  29.877  23.581
 247.02  29.768  23.581
 247.52  29.877  23.581
 248.02  29.768  23.581
 248.52  29.768  23.612
 249.02  29.768  23.581
 249.52  29.768  23.520
 250.02  29.768  23.581
 250.52  29.877  23.581
 251.02  29.985  23.612
 251.52  29.877  23.550
 252.02  29.877  23.550
 252.52  29.985  23.581
 253.02  29.877  23.581
 253.52  29.877  23.581
 254.02  29.985  23.581
 254.52  29.985  23.581
 255.02  29.985  23.581
 255.52  29.985  23.581
 256.02  29.985  23.581
 256.52  29.877  23.550
 257.02  29.985  23.581
 257.52  29.768  23.581
 258.02  30.101  23.581
 258.52  30.101  23.581
 259.02  29.985  23.550
 259.52  30.101  23.581
 260.02  30.101  23.612
 260.52  30.101  23.581
 261.02  29.985  23.581
 261.52  29.985  23.550
 262.02  29.985  23.581
 262.52  30.101  23.612
 263.02  30.101  23.550
 263.52  30.217  23.612
 264.02  30.217  23.581
 264.52  30.217  23.581
 265.02  30.101  23.581
 265.52  30.101  23.520
 266.02  30.334  23.612
 266.52  30.101  23.550
 267.02  30.101  23.581
 267.52  30.217  23.581
 268.02  30.217  23.550
 268.52  30.217  23.581
 269.02  30.334  23.581
 269.52  30.334  23.550
 270.02  30.334  23.612
 270.52  30.334  23.612
 271.02  30.217  23.612
 271.52  30.334  23.581
 272.02  30.334  23.550
 272.52  30.334  23.581
 273.02  30.334  23.581
 273.52  30.451  23.581
 274.02  30.451  23.581
 274.52  30.451  23.581
 275.02  30.451  23.581
 275.52  30.451  23.581
 276.02  30.451  23.550
 276.52  30.451  23.581
 277.02  30.451  23.581
 277.52  30.451  23.674
 278.02  30.334  23.581
 278.52  30.451  23.581
 279.02  30.451  23.581
 279.52  30.568  23.581
 280.02  30.451  23.581
 280.52  30.568  23.612
 281.02  30.568  23.581
 281.52  30.802  23.612
 282.02  30.568  23.612
 282.52  30.568  23.612
 283.02  30.685  23.581
 283.52  30.685  23.581
 284.02  30.568  23.581
 284.52  30.451  23.581
 285.03  30.685  23.612
 285.53  30.685  23.550
 286.03  30.685  23.581
 286.53  30.685  23.612
 287.03  30.568  23.581
 287.53  30.568  23.612
 288.03  30.919  23.581
 288.53  30.685  23.550
 289.03  30.685  23.612
 289.53  30.685  23.550
 290.03  30.802  23.581
 290.53  30.802  23.581
 291.03  30.802  23.581
 291.53  30.685  23.612
 292.03  30.802  23.581
 292.53  30.568  23.550
 293.03  30.919  23.581
 293.53  30.802  23.581
 294.03  30.919  23.550
 294.53  30.919  23.581
 295.03  30.802  23.612
 295.53  30.919  23.612
 296.03  30.802  23.581
 296.53  30.802  23.643
 297.03  30.802  23.581
 297.53  30.919  23.581
 298.03  30.919  23.581
 298.53  30.919  23.612
 299.03  30.919  23.581
 299.53  31.036  23.581
 300.03  30.919  23.612
 300.53  31.036  23.581
 301.03  30.919  23.581
 301.53  30.919  23.550
 302.03  31.036  23.612
 302.53  31.036  23.550
 303.03  31.036  23.612
 303.53  30.919  23.581
 304.03  30.919  23.612
 304.53  31.152  23.581
 305.03  31.036  23.612
 305.53  31.036  23.612
 306.03  31.036  23.581
 306.53  31.152  23.612
 307.03  31.036  23.612
 307.53  31.152  23.581
 308.03  30.919  23.612
 308.53  31.152  23.612
 309.03  31.152  23.643
 309.53  31.152  23.612
 310.03  31.152  23.612
 310.53  31.269  23.612
 311.03  31.152  23.612
 311.53  31.152  23.581
 312.03  31.386  23.581
 312.53  31.269  23.612
 313.03  31.269  23.612
 313.53  31.152  23.581
 314.03  31.269  23.581
 314.53  31.269  23.612
 315.03  31.269  23.550
 315.53  31.152  23.581
 316.03  31.269  23.612
 316.53  31.386  23.581
 317.03  31.269  23.581
 317.53  31.269  23.612
 318.03  31.386  23.581
 318.53  31.386  23.612
 319.03  31.269  23.550
 319.53  31.269  23.612
 320.03  31.386  23.643
 320.53  31.269  23.612
 321.03  31.269  23.612
 321.53  31.386  23.581
 322.03  31.503  23.612
 322.53  31.269  23.581
 323.03  31.386  23.581
 323.53  31.620  23.581
 324.03  31.503  23.612
 324.53  31.503  23.612
 325.03  31.503  23.612
 325.53  31.503  23.581
 326.03  31.503  23.643
 326.53  31.503  23.581
 327.03  31.620  23.612
 327.53  31.620  23.581
 328.03  31.503  23.612
 328.53  31.503  23.581
 329.03  31.503  23.581
 329.53  31.737  23.612
 330.03  31.503  23.581
 330.53  31.620  23.581
 331.03  31.503  23.550
 331.53  31.620  23.612
 332.03  31.620  23.612
 332.53  31.737  23.612
 333.03  31.620  23.612
 333.53  31.737  23.581
 334.03  31.854  23.581
 334.53  31.971  23.643
 335.03  31.620  23.612
 335.53  31.737  23.612
 336.03  31.620  23.581
 336.53  31.737  23.612
 337.03  31.620  23.581
 337.53  31.737  23.612
 338.03  31.620  23.612
 338.53  31.620  23.643
 339.03  31.737  23.550
 339.53  31.737  23.581
 340.03  31.737  23.581
 340.53  31.737  23.581
 341.03  31.737  23.581
 341.53  31.737  23.612
 342.03  31.854  23.612
 342.53  31.737  23.581
 343.03  31.737  23.581
 343.53  31.737  23.581
 344.03  31.854  23.581
 344.53  31.854  23.612
 345.03  31.854  23.581
 345.53  31.971  23.581
 346.03  31.971  23.581
 346.53  31.854  23.612
 347.03  31.854  23.612
 347.53  31.737  23.612
 348.03  31.971  23.612
 348.53  31.737  23.581
 349.03  31.971  23.581
 349.53  31.971  23.612
 350.03  31.971  23.581
 350.53  31.971  23.612
 351.03  31.971  23.612
 351.53  31.971  23.581
 352.03  31.971  23.581
 352.53  31.971  23.612
 353.03  32.087  23.612
 353.53  31.971  23.612
 354.03  31.971  23.643
 354.53  31.971  23.581
 355.03  31.971  23.612
 355.53  32.087  23.581
 356.03  32.204  23.612
 356.53  31.854  23.581
 357.03  32.087  23.581
 357.53  32.204  23.581
 358.03  32.087  23.643
 358.53  32.087  23.612
 359.03  32.087  23.612
 359.53  32.204  23.612
 360.03  32.204  23.550
 360.53  32.204  23.581
 361.03  32.204  23.643
 361.53  32.087  23.612
 362.03  32.204  23.612
 362.53  32.321  23.612
 363.03  32.204  23.612
 363.53  32.087  23.612
 364.03  32.321  23.581
 364.53  32.204  23.612
 365.03  32.321  23.612
 365.53  32.204  23.612
 366.03  32.204  23.612
 366.53  32.204  23.581
 367.03  32.321  23.612
 367.53  32.321  23.581
 368.03  32.321  23.612
 368.53  32.321  23.612
 369.03  32.204  23.550
 369.53  32.204  23.581
 370.03  32.321  23.612
 370.53  32.321  23.581
 371.03  32.321  23.612
 371.53  32.321  23.612
 372.03  32.438  23.581
 372.53  32.321  23.581
 373.03  32.321  23.612
 373.53  32.438  23.581
 374.03  32.321  23.612
 374.53  32.555  23.612
 375.03  32.438  23.612
 375.53  32.438  23.581
 376.03  32.438  23.612
 376.53  32.438  23.612
 377.03  32.672  23.581
 377.53  32.438  23.612
 378.03  32.555  23.643
 378.53  32.555  23.581
 379.03  32.438  23.581
 379.53  32.438  23.643
 380.03  32.555  23.643
 380.53  32.555  23.612
 381.03  32.438  23.581
 381.53  32.672  23.643
 382.03  32.438  23.612
 382.53  32.555  23.612
 383.03  32.555  23.643
 383.53  32.555  23.612
 384.03  32.672  23.643
 384.53  32.555  23.612
 385.03  32.672  23.643
 385.53  32.672  23.612
 386.03  32.555  23.612
 386.53  32.555  23.612
 387.04  32.789  23.612
 387.54  32.555  23.612
 388.04  32.672  23.612
 388.54  32.906  23.612
 389.04  32.789  23.612
 389.54  32.789  23.612
 390.04  32.672  23.612
 390.54  32.672  23.612
 391.04  32.672  23.612
 391.54  32.672  23.643
 392.04  32.789  23.643
 392.54  32.672  23.612
 393.04  32.789  23.674
 393.54  32.672  23.612
 394.04  32.672  23.581
 394.54  32.789  23.612
 395.04  32.789  23.612
 395.54  32.672  23.612
 396.04  32.906  23.612
 396.54  32.906  23.643
 397.04  32.906  23.612
 397.54  32.906  23.581
 398.04  32.906  23.612
 398.54  32.906  23.612
 399.04  33.022  23.612
 399.54  32.906  23.612
 400.04  32.789  23.612
 400.54  33.022  23.612
 401.04  33.022  23.612
 401.54  32.906  23.643
 402.04  32.906  23.612
 402.54  32.672  23.581
 403.04  32.906  23.643
 403.54  32.906  23.612
 404.04  32.906  23.612
 404.54  33.022  23.612
 405.04  33.022  23.612
 405.54  33.022  23.612
 406.04  32.789  23.612
 406.54  32.906  23.612
 407.04  33.022  23.643
 407.54  32.789  23.612
 408.04  33.022  23.612
 408.54  33.139  23.643
 409.04  33.139  23.643
 409.54  33.022  23.612
 410.04  33.022  23.612
 410.54  33.022  23.612
 411.04  33.022  23.612
 411.54  33.022  23.612
 412.04  33.022  23.612
 412.54  33.022  23.612
 413.04  33.022  23.612
 413.54  33.139  23.612
 414.04  32.906  23.581
 414.54  33.139  23.612
 415.04  33.022  23.612
 415.54  33.256  23.612
 416.04  33.139  23.612
 416.54  33.139  23.612
 417.04  33.022  23.612
 417.54  33.139  23.612
 418.04  33.139  23.612
 418.54  33.139  23.612
 419.04  33.022  23.674
 419.54  33.256  23.612
 420.04  33.139  23.643
 420.54  33.139  23.643
 421.04  33.256  23.612
 421.54  33.139  23.581
 422.04  33.139  23.612
 422.54  33.022  23.581
 423.04  33.256  23.612
 423.54  33.256  23.612
 424.04  33.139  23.643
 424.54  33.256  23.643
 425.04  33.256  23.612
 425.54  33.139  23.643
 426.04  33.256  23.612
 426.54  33.490  23.581
 427.04  33.256  23.612
 427.54  33.256  23.643
 428.04  33.256  23.612
 428.54  33.256  23.612
 429.04  33.256  23.612
 429.54  33.256  23.581
 430.04  33.607  23.612
 430.54  33.373  23.612
 431.04  33.373  23.643
 431.54  33.256  23.612
 432.04  33.373  23.612
 432.54  33.373  23.612
 433.04  33.256  23.612
 433.54  33.256  23.643
 434.04  33.373  23.612
 434.54  33.373  23.643
 435.04  33.256  23.612
 435.54  33.490  23.581
 436.04  33.490  23.581
 436.54  33.607  23.643
 437.04  33.373  23.643
 437.54  33.490  23.581
 438.04  33.373  23.612
 438.54  33.373  23.612
 439.04  33.490  23.643
 439.54  33.373  23.612
 440.04  33.607  23.643
 440.54  33.490  23.643
 441.04  33.490  23.643
 441.54  33.607  23.674
 442.04  33.490  23.643
 442.54  33.490  23.612
 443.04  33.490  23.643
 443.54  33.490  23.612
 444.04  33.607  23.643
 444.54  33.490  23.643
 445.04  33.607  23.612
 445.54  33.490  23.612
 446.04  33.490  23.643
 446.54  33.490  23.612
 447.04  33.490  23.612
 447.54  33.607  23.643
 448.04  33.607  23.581
 448.54  33.490  23.643
 449.04  33.490  23.612
 449.54  33.607  23.674
 450.04  33.607  23.612
 450.54  33.490  23.612
 451.04  33.607  23.612
 451.54  33.490  23.612
 452.04  33.607  23.612
 452.54  33.724  23.643
 453.04  33.724  23.643
 453.54  33.490  23.643
 454.04  33.724  23.612
 454.54  33.607  23.674
 455.04  33.490  23.643
 455.54  33.607  23.612
 456.04  33.724  23.612
 456.54  33.724  23.612
 457.04  33.724  23.612
 457.54  33.724  23.643
 458.04  33.724  23.643
 458.54  33.724  23.643
 459.04  33.724  23.612
 459.54  33.724  23.612
 460.04  33.957  23.612
 460.54  33.841  23.612
 461.04  33.841  23.643
 461.54  33.841  23.612
 462.04  33.724  23.612
 462.54  33.841  23.643
 463.04  33.841  23.643
 463.54  33.841  23.612
 464.04  33.724  23.612
 464.54  33.841  23.612
 465.04  33.957  23.581
 465.54  33.841  23.612
 466.04  33.841  23.612
 466.54  33.841  23.612
 467.04  33.957  23.643
 467.54  33.841  23.612
 468.04  33.841  23.643
 468.54  33.841  23.612
 469.04  33.724  23.643
 469.54  33.841  23.643
 470.04  33.607  23.643
 470.54  33.841  23.612
 471.04  33.957  23.643
 471.54  33.957  23.612
 472.04  33.957  23.612
 472.54  33.841  23.581
 473.04  33.957  23.643
 473.54  33.841  23.643
 474.04  33.841  23.612
 474.54  33.957  23.643
 475.04  34.074  23.612
 475.54  33.841  23.643
 476.04  33.957  23.581
 476.54  34.074  23.643
 477.04  34.074  23.643
 477.54  33.957  23.612
 478.04  34.074  23.643
 478.54  33.957  23.643
 479.04  34.074  23.612
 479.54  34.074  23.612
 480.04  34.074  23.643
 480.54  34.074  23.612
 481.04  34.191  23.612
 481.54  34.074  23.612
 482.04  34.191  23.643
 482.54  34.074  23.612
 483.04  34.191  23.581
 483.54  34.074  23.612
 484.04  34.191  23.643
 484.54  34.074  23.643
 485.04  34.191  23.612
 485.54  34.074  23.643
 486.04  34.074  23.612
 486.54  34.074  23.612
 487.04  34.074  23.643
 487.54  34.308  23.612
 488.04  34.074  23.643
 488.54  34.074  23.643
 489.04  34.191  23.612
 489.54  34.074  23.643
 490.04  34.191  23.612
 490.54  34.191  23.643
 491.04  34.191  23.643
 491.54  34.308  23.612
 492.04  34.191  23.612
 492.54  34.074  23.612
 493.04  34.191  23.643
 493.54  34.191  23.674
 494.04  34.074  23.643
 494.54  34.308  23.643
 495.04  34.191  23.643
 495.54  34.308  23.612
 496.04  34.191  23.612
 496.54  34.308  23.643
 497.04  34.308  23.612
 497.54  34.191  23.643
 498.04  34.191  23.612
 498.54  34.191  23.612
 499.04  34.308  23.643
 499.54  34.308  23.612
 500.04  34.308  23.612
 500.55  34.425  23.643
 501.05  34.308  23.643
 501.55  34.425  23.643
 502.05  34.308  23.612
 502.55  34.308  23.643
 503.05  34.425  23.643
 503.55  34.191  23.643
 504.05  34.191  23.643
 504.55  34.308  23.643
 505.05  34.308  23.643
 505.55  34.308  23.612
 506.05  34.542  23.643
 506.55  34.425  23.612
 507.05  34.425  23.643
 507.55  34.425  23.612
 508.05  34.425  23.674
 508.55  34.425  23.643
 509.05  34.425  23.674
 509.55  34.425  23.612
 510.05  34.425  23.643
 510.55  34.425  23.643
 511.05  34.425  23.612
 511.55  34.425  23.643
 512.05  34.542  23.643
 512.55  34.425  23.643
 513.05  34.308  23.674
 513.55  34.542  23.643
 514.05  34.542  23.643
 514.55  34.425  23.643
 515.05  34.542  23.674
 515.55  34.542  23.612
 516.05  34.425  23.643
 516.55  34.542  23.643
 517.05  34.659  23.643
 517.55  34.425  23.612
 518.05  34.542  23.643
 518.55  34.659  23.674
 519.05  34.542  23.643
 519.55  34.542  23.674
 520.05  34.542  23.643
 520.55  34.542  23.674
 521.05  34.542  23.643
 521.55  34.542  23.643
 522.05  34.542  23.674
 522.55  34.659  23.674
 523.05  34.542  23.581
 523.55  34.542  23.612
 524.05  34.542  23.612
 524.55  34.659  23.612
 525.05  34.659  23.643
 525.55  34.659  23.643
 526.05  34.542  23.674
 526.55  34.776  23.612
 527.05  34.542  23.612
 527.55  34.659  23.643
 528.05  34.776  23.674
 528.55  34.659  23.612
 529.05  34.776  23.674
 529.55  34.776  23.643
 530.05  34.659  23.643
 530.55  34.776  23.643
 531.05  34.659  23.674
 531.55  34.659  23.643
 532.05  34.776  23.643
 532.55  34.776  23.643
 533.05  34.776  23.643
 533.55  34.542  23.643
 534.05  34.659  23.643
 534.55  34.776  23.643
 535.05  34.659  23.612
 535.55  34.892  23.643
 536.05  34.659  23.612
 536.55  34.776  23.674
 537.05  34.776  23.643
 537.55  34.542  23.643
 538.05  34.776  23.643
 538.55  34.776  23.612
 539.05  34.776  23.612
 539.55  34.776  23.643
 540.05  34.776  23.643
 540.55  34.776  23.674
 541.05  34.659  23.643
 541.55  34.659  23.643
 542.05  34.776  23.643
 542.55  34.659  23.643
 543.05  34.776  23.643
 543.55  34.776  23.674
 544.05  34.776  23.643
 544.55  34.892  23.643
 545.05  34.892  23.674
 545.55  34.776  23.643
 546.05  34.776  23.581
 546.55  34.892  23.643
 547.05  34.892  23.643
 547.55  34.776  23.643
 548.05  34.892  23.643
 548.55  34.776  23.674
 549.05  34.892  23.643
 549.55  35.005  23.674
 550.05  34.892  23.643
 550.55  34.892  23.643
 551.05  34.892  23.674
 551.55  34.892  23.674
 552.05  35.005  23.643
 552.55  34.892  23.612
 553.05  34.892  23.643
 553.55  34.892  23.643
 554.05  35.005  23.643
 554.55  35.005  23.643
 555.05  34.892  23.643
 555.55  34.892  23.643
 556.05  35.069  23.674
 556.55  35.005  23.643
 557.05  35.005  23.612
 557.55  35.005  23.643
 558.05  34.892  23.643
 558.55  35.005  23.643
 559.05  35.005  23.674
 559.55  35.005  23.612
 560.05  35.005  23.643
 560.55  35.005  23.643
 561.05  35.005  23.643
 561.55  35.005  23.643
 562.05  35.005  23.643
 562.55  35.069  23.643
 563.05  35.005  23.643
 563.55  35.005  23.643
 564.05  35.069  23.674
 564.55  35.069  23.643
 565.05  35.005  23.643
 565.55  35.005  23.643
 566.05  35.069  23.674
 566.55  35.069  23.643
 567.05  35.133  23.674
 567.55  35.005  23.643
 568.05  35.069  23.674
 568.55  35.005  23.643
 569.05  35.069  23.643
 569.55  35.069  23.643
 570.05  35.133  23.674
 570.55  35.069  23.674
 571.05  35.133  23.674
 571.55  35.197  23.643
 572.05  35.197  23.674
 572.55  35.069  23.674
 573.05  35.133  23.643
 573.55  35.133  23.674
 574.05  35.069  23.643
 574.55  35.133  23.643
 575.05  35.197  23.643
 575.55  35.133  23.674
 576.05  35.133  23.674
 576.55  35.133  23.674
 577.05  35.133  23.674
 577.55  35.133  23.643
 578.05  35.069  23.674
 578.55  35.133  23.674
 579.05  35.133  23.643
 579.55  35.133  23.643
 580.05  35.197  23.674
 580.55  35.197  23.674
 581.05  35.133  23.674
 581.55  35.197  23.674
 582.05  35.197  23.674
 582.55  35.133  23.674
 583.05  35.133  23.643
 583.55  35.133  23.643
 584.05  35.197  23.643
 584.55  35.197  23.643
 585.05  35.197  23.674
 585.55  35.133  23.643
 586.05  35.133  23.674
 586.55  35.261  23.705
 587.05  35.197  23.643
 587.55  35.197  23.643
 588.05  35.133  23.674
 588.55  35.133  23.643
 589.05  35.133  23.643
 589.55  35.197  23.674
 590.05  35.133  23.674
 590.55  35.197  23.643
 591.05  35.197  23.643
 591.55  35.197  23.674
 592.05  35.325  23.612
 592.55  35.133  23.674
 593.05  35.133  23.674
 593.55  35.261  23.643
 594.05  35.197  23.643
 594.55  35.261  23.674
 595.05  35.325  23.674
 595.55  35.197  23.643
 596.05  35.261  23.643
 596.55  35.261  23.643
 597.05  35.197  23.705
 597.55  35.261  23.674
 598.05  35.197  23.643
 598.55  35.261  23.674
 599.05  35.261  23.674
 599.55  35.197  23.674
 600.05  35.197  23.674
 600.55  35.197  23.612
 601.05  35.261  23.674
 601.55  35.197  23.643
 602.05  35.325  23.674
 602.55  35.261  23.612
 603.05  35.261  23.643
 603.55  35.261  23.612
 604.05  35.261  23.643
 604.55  35.261  23.612
 605.05  35.261  23.674
 605.55  35.261  23.643
 606.05  35.325  23.674
 606.55  35.325  23.674
 607.05  35.261  23.674
 607.55  35.261  23.674
 608.05  35.325  23.643
 608.55  35.261  23.674
 609.05  35.197  23.674
 609.55  35.325  23.705
 610.05  35.325  23.643
 610.55  35.261  23.643
 611.05  35.325  23.674
 611.55  35.389  23.735
 612.05  35.261  23.674
 612.55  35.453  23.674
 613.05  35.261  23.643
 613.55  35.325  23.674
 614.05  35.325  23.643
 614.55  35.325  23.643
 615.05  35.325  23.674
 615.55  35.325  23.643
 616.05  35.325  23.674
 616.55  35.325  23.674
 617.05  35.389  23.674
 617.55  35.325  23.581
 618.05  35.389  23.643
 618.55  35.581  23.674
 619.05  35.325  23.674
 619.55  35.325  23.643
 620.05  35.261  23.674
 620.55  35.325  23.674
 621.05  35.325  23.674
 621.55  35.389  23.643
 622.05  35.325  23.643
 622.55  35.453  23.674
 623.05  35.325  23.674
 623.55  35.517  23.674
 624.05  35.389  23.674
 624.56  35.325  23.674
 625.06  35.389  23.674
 625.56  35.389  23.674
 626.06  35.389  23.643
 626.56  35.389  23.612
 627.06  35.389  23.643
 627.56  35.389  23.674
 628.06  35.389  23.674
 628.56  35.453  23.674
 629.06  35.453  23.643
 629.56  35.453  23.643
 630.06  35.325  23.674
 630.56  35.325  23.674
 631.06  35.389  23.674
 631.56  35.389  23.612
 632.06  35.389  23.643
 632.56  35.453  23.674
 633.06  35.389  23.643
 633.56  35.453  23.643
 634.06  35.453  23.643
 634.56  35.389  23.643
 635.06  35.453  23.643
 635.56  35.389  23.643
 636.06  35.453  23.705
 636.56  35.453  23.643
 637.06  35.453  23.674
 637.56  35.517  23.643
 638.06  35.517  23.674
 638.56  35.453  23.705
 639.06  35.453  23.643
 639.56  35.517  23.643
 640.06  35.453  23.674
 640.56  35.453  23.674
 641.06  35.517  23.674
 641.56  35.453  23.643
 642.06  35.453  23.674
 642.56  35.453  23.674
 643.06  35.453  23.674
 643.56  35.453  23.674
 644.06  35.517  23.674
 644.56  35.453  23.674
 645.06  35.517  23.643
 645.56  35.517  23.705
 646.06  35.453  23.674
 646.56  35.453  23.674
 647.06  35.453  23.674
 647.56  35.453  23.643
 648.06  35.453  23.643
 648.56  35.453  23.674
 649.06  35.517  23.674
 649.56  35.517  23.643
 650.06  35.517  23.612
 650.56  35.517  23.674
 651.06  35.517  23.674
 651.56  35.517  23.674
 652.06  35.453  23.705
 652.56  35.517  23.705
 653.06  35.517  23.674
 653.56  35.517  23.643
 654.06  35.453  23.674
 654.56  35.517  23.705
 655.06  35.517  23.674
 655.56  35.517  23.643
 656.06  35.581  23.705
 656.56  35.517  23.674
 657.06  35.581  23.643
 657.56  35.453  23.674
 658.06  35.581  23.643
 658.56  35.581  23.674
 659.06  35.709  23.674
 659.56  35.517  23.674
 660.06  35.517  23.674
 660.56  35.581  23.643
 661.06  35.645  23.705
 661.56  35.581  23.674
 662.06  35.645  23.674
 662.56  35.581  23.674
 663.06  35.581  23.674
 663.56  35.517  23.705
 664.06  35.517  23.674
 664.56  35.581  23.643
 665.06  35.581  23.674
 665.56  35.645  23.674
 666.06  35.581  23.643
 666.56  35.581  23.705
 667.06  35.581  23.705
 667.56  35.581  23.674
 668.06  35.581  23.674
 668.56  35.645  23.674
 669.06  35.581  23.674
 669.56  35.709  23.705
 670.06  35.581  23.674
 670.56  35.645  23.674
 671.06  35.645  23.643
 671.56  35.645  23.674
 672.06  35.645  23.705
 672.56  35.581  23.674
 673.06  35.645  23.674
 673.56  35.709  23.705
 674.06  35.645  23.643
 674.56  35.645  23.674
 675.06  35.645  23.705
 675.56  35.645  23.705
 676.06  35.645  23.674
 676.56  35.709  23.705
 677.06  35.645  23.705
 677.56  35.709  23.674
 678.06  35.709  23.674
 678.56  35.645  23.674
 679.06  35.645  23.674
 679.56  35.645  23.674
 680.06  35.645  23.674
 680.56  35.709  23.705
 681.06  35.645  23.674
 681.56  35.645  23.674
 682.06  35.709  23.674
 682.56  35.773  23.674
 683.06  35.709  23.674
 683.56  35.581  23.674
 684.06  35.709  23.674
 684.56  35.645  23.674
 685.06  35.709  23.674
 685.56  35.709  23.705
 686.06  35.645  23.705
 686.56  35.773  23.705
 687.06  35.645  23.674
 687.56  35.709  23.674
 688.06  35.709  23.705
 688.56  35.773  23.705
 689.06  35.709  23.674
 689.56  35.709  23.674
 690.06  35.709  23.674
 690.56  35.709  23.674
 691.06  35.837  23.674
 691.56  35.773  23.674
 692.06  35.773  23.674
 692.56  35.773  23.705
 693.06  35.709  23.643
 693.56  35.837  23.674
 694.06  35.773  23.643
 694.56  35.773  23.705
 695.06  35.773  23.674
 695.56  35.773  23.674
 696.06  35.709  23.705
 696.56  35.773  23.674
 697.06  35.773  23.674
 697.56  35.709  23.674
 698.06  35.709  23.674
 698.56  35.773  23.674
 699.06  35.773  23.705
 699.56  35.837  23.705
 700.06  35.773  23.705
 700.56  35.773  23.674
 701.06  35.773  23.674
 701.56  35.773  23.674
 702.06  35.709  23.674
 702.56  35.709  23.705
 703.06  35.773  23.674
 703.56  35.837  23.705
 704.06  35.837  23.674
 704.56  35.773  23.674
 705.06  35.773  23.674
 705.56  35.773  23.674
 706.06  35.773  23.674
 706.56  35.773  23.674
 707.06  35.837  23.674
 707.56  35.837  23.705
 708.06  35.773  23.674
 708.56  35.773  23.705
 709.06  35.837  23.674
 709.56  35.773  23.643
 710.06  35.837  23.674
 710.56  35.837  23.705
 711.06  35.837  23.705
 711.56  35.901  23.674
 712.06  35.773  23.674
 712.56  35.837  23.705
 713.06  35.773  23.705
 713.56  35.773  23.705
 714.06  35.837  23.705
 714.56  35.837  23.705
 715.06  35.901  23.674
 715.56  35.901  23.674
 716.06  35.773  23.705
 716.56  35.773  23.674
 717.06  35.837  23.674
 717.56  35.837  23.674
 718.06  35.837  23.705
 718.56  35.901  23.643
 719.06  35.901  23.674
 719.56  35.837  23.674
 720.06  35.837  23.705
 720.56  35.837  23.674
 721.06  35.901  23.674
 721.56  35.901  23.674
 722.06  35.837  23.674
 722.56  35.837  23.674
 723.06  35.901  23.674
 723.56  35.773  23.674
 724.06  35.837  23.674
 724.56  35.901  23.705
 725.06  35.837  23.705
 725.56  35.837  23.705
 726.06  35.901  23.705
 726.57  35.837  23.674
 727.07  35.901  23.674
 727.57  35.901  23.705
 728.07  35.773  23.674
 728.57  35.901  23.674
 729.07  35.837  23.674
 729.57  35.901  23.674
 730.07  35.837  23.643
 730.57  35.901  23.674
 731.07  35.901  23.705
 731.57  35.901  23.705
 732.07  35.965  23.705
 732.57  35.773  23.674
 733.07  35.901  23.705
 733.57  35.901  23.705
 734.07  35.965  23.705
 734.57  35.901  23.674
 735.07  36.029  23.735
 735.57  35.837  23.674
 736.07  35.837  23.643
 736.57  35.837  23.735
 737.07  35.901  23.705
 737.57  35.965  23.705
 738.07  35.965  23.674
 738.57  35.901  23.705
 739.07  35.901  23.705
 739.57  35.965  23.705
 740.07  36.029  23.705
 740.57  35.965  23.705
 741.07  35.965  23.705
 741.57  35.965  23.674
 742.07  35.901  23.705
 742.57  35.965  23.674
 743.07  35.965  23.705
 743.57  35.965  23.705
 744.07  35.965  23.674
 744.57  35.965  23.705
 745.07  35.965  23.705
 745.57  36.029  23.705
 746.07  36.029  23.674
 746.57  35.965  23.674
 747.07  35.965  23.705
 747.57  35.965  23.674
 748.07  35.965  23.674
 748.57  36.029  23.705
 749.07  35.965  23.643
 749.57  35.965  23.674
 750.07  35.965  23.735
 750.57  35.965  23.705
 751.07  35.965  23.674
 751.57  36.029  23.705
 752.07  35.901  23.705
 752.57  35.901  23.674
 753.07  35.965  23.705
 753.57  36.093  23.705
 754.07  36.029  23.674
 754.57  35.965  23.705
 755.07  36.029  23.705
 755.57  36.029  23.705
 756.07  35.965  23.705
 756.57  36.029  23.705
 757.07  35.965  23.705
 757.57  36.029  23.674
 758.07  36.029  23.705
 758.57  36.093  23.705
 759.07  36.029  23.705
 759.57  36.029  23.705
 760.07  35.965  23.705
 760.57  35.965  23.674
 761.07  36.029  23.766
 761.57  36.029  23.705
 762.07  35.965  23.705
 762.57  36.029  23.705
 763.07  36.093  23.705
 763.57  36.029  23.674
 764.07  36.029  23.674
 764.57  36.029  23.705
 765.07  36.029  23.674
 765.57  36.029  23.705
 766.07  36.093  23.705
 766.57  36.093  23.705
 767.07  36.029  23.735
 767.57  36.029  23.705
 768.07  36.157  23.674
 768.57  36.029  23.705
 769.07  36.029  23.735
 769.57  36.029  23.705
 770.07  36.157  23.705
 770.57  36.029  23.705
 771.07  36.093  23.705
 771.57  36.029  23.705
 772.07  36.093  23.705
 772.57  36.093  23.705
 773.07  36.093  23.705
 773.57  36.093  23.674
 774.07  36.093  23.674
 774.57  36.093  23.612
 775.07  36.093  23.705
 775.57  36.093  23.643
 776.07  36.093  23.705
 776.57  36.093  23.705
 777.07  36.093  23.674
 777.57  36.157  23.705
 778.07  36.093  23.735
 778.57  36.093  23.705
 779.07  36.029  23.705
 779.57  36.093  23.705
 780.07  36.093  23.705
 780.57  36.157  23.705
 781.07  36.093  23.705
 781.57  36.093  23.705
 782.07  36.093  23.705
 782.57  36.093  23.674
 783.07  36.157  23.705
 783.57  36.157  23.705
 784.07  36.093  23.735
 784.57  36.093  23.674
 785.07  36.093  23.705
 785.57  36.157  23.735
 786.07  36.221  23.705
 786.57  36.093  23.735
 787.07  36.093  23.674
 787.57  36.157  23.674
 788.07  36.157  23.705
 788.57  36.157  23.735
 789.07  36.029  23.735
 789.57  36.157  23.705
 790.07  36.157  23.705
 790.57  36.093  23.705
 791.07  36.157  23.705
 791.57  36.285  23.705
 792.07  36.157  23.705
 792.57  36.157  23.674
 793.07  36.093  23.674
 793.57  36.157  23.674
 794.07  36.157  23.705
 794.57  36.029  23.674
 795.07  36.221  23.705
 795.57  36.157  23.705
 796.07  36.157  23.674
 796.57  36.221  23.705
 797.07  36.221  23.705
 797.57  36.157  23.705
 798.07  36.157  23.735
 798.57  36.157  23.674
 799.07  36.157  23.674
 799.57  36.157  23.705
 800.07  36.221  23.705
 800.57  36.157  23.705
 801.07  36.157  23.705
 801.57  36.221  23.705
 802.07  36.221  23.705
 802.57  36.285  23.674
 803.07  36.221  23.674
 803.57  36.221  23.705
 804.07  36.349  23.705
 804.57  36.221  23.735
 805.07  36.221  23.705
 805.57  36.221  23.705
 806.07  36.285  23.674
 806.57  36.221  23.705
 807.07  36.157  23.705
 807.57  36.157  23.705
 808.07  36.221  23.674
 808.57  36.221  23.705
 809.07  36.285  23.735
 809.57  36.221  23.705
 810.07  36.285  23.735
 810.57  36.221  23.705
 811.07  36.285  23.674
 811.57  36.221  23.705
 812.07  36.221  23.705
 812.57  36.221  23.705
 813.07  36.221  23.705
 813.57  36.221  23.705
 814.07  36.221  23.705
 814.57  36.285  23.705
 815.07  36.221  23.735
 815.57  36.285  23.705
 816.07  36.285  23.797
 816.57  36.285  23.705
 817.07  36.221  23.705
 817.57  36.285  23.705
 818.07  36.285  23.735
 818.57  36.221  23.705
 819.07  36.285  23.735
 819.57  36.285  23.705
 820.07  36.221  23.705
 820.57  36.221  23.705
 821.07  36.285  23.705
 821.57  36.285  23.705
 822.07  36.285  23.705
 822.57  36.221  23.705
 823.07  36.349  23.705
 823.57  36.285  23.705
 824.07  36.285  23.735
 824.57  36.413  23.735
 825.07  36.285  23.705
 825.57  36.285  23.735
 826.07  36.285  23.674
 826.57  36.285  23.705
 827.07  36.285  23.705
 827.57  36.349  23.735
 828.07  36.285  23.705
 828.57  36.349  23.705
 829.07  36.349  23.705
 829.57  36.349  23.705
 830.07  36.349  23.705
 830.57  36.349  23.705
 831.07  36.285  23.674
 831.57  36.285  23.735
 832.07  36.285  23.705
 832.57  36.285  23.705
 833.07  36.285  23.705
 833.57  36.285  23.705
 834.07  36.285  23.735
 834.57  36.285  23.705
 835.07  36.349  23.705
 835.57  36.349  23.674
 836.07  36.285  23.705
 836.57  36.413  23.705
 837.07  36.349  23.705
 837.57  36.285  23.735
 838.07  36.285  23.705
 838.57  36.349  23.735
 839.07  36.349  23.735
 839.58  36.349  23.735
 840.08  36.349  23.735
 840.58  36.349  23.735
 841.08  36.349  23.643
 841.58  36.285  23.735
 842.08  36.413  23.705
 842.58  36.349  23.735
 843.08  36.349  23.674
 843.58  36.285  23.735
 844.08  36.349  23.705
 844.58  36.349  23.705
 845.08  36.349  23.705
 845.58  36.349  23.735
 846.08  36.349  23.705
 846.58  36.413  23.735
 847.08  36.349  23.705
 847.58  36.285  23.735
 848.08  36.413  23.705
 848.58  36.349  23.705
 849.08  36.349  23.735
 849.58  36.349  23.735
 850.08  36.349  23.735
 850.58  36.477  23.735
 851.08  36.413  23.735
 851.58  36.413  23.705
 852.08  36.413  23.705
 852.58  36.349  23.735
 853.08  36.349  23.674
 853.58  36.413  23.705
 854.08  36.413  23.705
 854.58  36.413  23.705
 855.08  36.413  23.735
 855.58  36.413  23.735
 856.08  36.477  23.705
 856.58  36.541  23.705
 857.08  36.413  23.735
 857.58  36.285  23.735
 858.08  36.413  23.705
 858.58  36.477  23.705
 859.08  36.413  23.705
 859.58  36.413  23.705
 860.08  36.349  23.705
 860.58  36.413  23.705
 861.08  36.413  23.735
 861.58  36.413  23.735
 862.08  36.477  23.735
 862.58  36.349  23.735
 863.08  36.349  23.705
 863.58  36.413  23.705
 864.08  36.477  23.705
 864.58  36.413  23.705
 865.08  36.413  23.705
 865.58  36.477  23.705
 866.08  36.413  23.735
 866.58  36.477  23.735
 867.08  36.413  23.705
 867.58  36.477  23.735
 868.08  36.477  23.735
 868.58  36.477  23.735
 869.08  36.477  23.705
 869.58  36.477  23.735
 870.08  36.477  23.705
 870.58  36.349  23.705
 871.08  36.541  23.735
 871.58  36.349  23.766
 872.08  36.477  23.735
 872.58  36.477  23.735
 873.08  36.541  23.735
 873.58  36.477  23.735
 874.08  36.477  23.735
 874.58  36.477  23.705
 875.08  36.477  23.766
 875.58  36.477  23.705
 876.08  36.477  23.735
 876.58  36.477  23.705
 877.08  36.541  23.735
 877.58  36.605  23.735
 878.08  36.477  23.705
 878.58  36.477  23.735
 879.08  36.477  23.735
 879.58  36.477  23.735
 880.08  36.477  23.705
 880.58  36.477  23.705
 881.08  36.349  23.766
 881.58  36.541  23.705
 882.08  36.541  23.705
 882.58  36.477  23.735
 883.08  36.541  23.735
 883.58  36.541  23.735
 884.08  36.477  23.705
 884.58  36.541  23.705
 885.08  36.605  23.705
 885.58  36.541  23.735
 886.08  36.477  23.735
 886.58  36.605  23.735
 887.08  36.477  23.735
 887.58  36.541  23.735
 888.08  36.477  23.735
 888.58  36.477  23.705
 889.08  36.477  23.735
 889.58  36.477  23.705
 890.08  36.477  23.735
 890.58  36.477  23.735
 891.08  36.541  23.705
 891.58  36.541  23.705
 892.08  36.477  23.674
 892.58  36.477  23.735
 893.08  36.541  23.705
 893.58  36.605  23.735
 894.08  36.541  23.705
 894.58  36.541  23.674
 895.08  36.477  23.735
 895.58  36.541  23.705
 896.08  36.605  23.735
 896.58  36.541  23.674
 897.08  36.541  23.735
 897.58  36.541  23.705
 898.08  36.477  23.735
 898.58  36.541  23.766
 899.08  36.541  23.735
 899.58  36.541  23.705
 900.08  36.477  23.735
 900.58  36.541  23.735
 901.08  36.605  23.735
 901.58  36.605  23.735
 902.08  36.541  23.735
 902.58  36.605  23.766
 903.08  36.477  23.735
 903.58  36.541  23.735
 904.08  36.541  23.705
 904.58  36.605  23.735
 905.08  36.541  23.735
 905.58  36.605  23.735
 906.08  36.541  23.735
 906.58  36.605  23.705
 907.08  36.669  23.674
 907.58  36.605  23.766
 908.08  36.605  23.735
 908.58  36.541  23.705
 909.08  36.733  23.735
 909.58  36.669  23.735
 910.08  36.605  23.735
 910.58  36.541  23.735
 911.08  36.605  23.705
 911.58  36.605  23.705
 912.08  36.541  23.735
 912.58  36.733  23.735
 913.08  36.605  23.766
 913.58  36.605  23.735
 914.08  36.541  23.735
 914.58  36.605  23.705
 915.08  36.605  23.766
 915.58  36.605  23.735
 916.08  36.669  23.735
 916.58  36.669  23.735
 917.08  36.605  23.766
 917.58  36.605  23.735
 918.08  36.733  23.735
 918.58  36.605  23.766
 919.08  36.605  23.705
 919.58  36.605  23.705
 920.08  36.605  23.766
 920.58  36.605  23.766
 921.08  36.669  23.705
 921.58  36.733  23.735
 922.08  36.669  23.735
 922.58  36.669  23.735
 923.08  36.669  23.735
 923.58  36.605  23.735
 924.08  36.669  23.735
 924.58  36.605  23.766
 925.08  36.669  23.735
 925.58  36.669  23.735
 926.08  36.669  23.735
 926.58  36.605  23.735
 927.08  36.669  23.735
 927.58  36.669  23.766
 928.08  36.733  23.735
 928.58  36.669  23.735
 929.08  36.605  23.735
 929.58  36.669  23.766
 930.08  36.669  23.735
 930.58  36.669  23.735
 931.08  36.669  23.735
 931.58  36.733  23.735
 932.08  36.669  23.735
 932.58  36.669  23.735
 933.08  36.669  23.735
 933.58  36.669  23.735
 934.08  36.733  23.766
 934.58  36.669  23.735
 935.08  36.669  23.735
 935.58  36.669  23.735
 936.08  36.733  23.735
 936.58  36.669  23.766
 937.08  36.797  23.735
 937.58  36.605  23.705
 938.08  36.669  23.735
 938.58  36.669  23.735
 939.08  36.733  23.735
 939.58  36.797  23.705
 940.08  36.733  23.735
 940.58  36.733  23.766
 941.08  36.733  23.766
 941.58  36.733  23.766
 942.08  36.669  23.766
 942.58  36.733  23.735
 943.08  36.605  23.735
 943.58  36.541  23.705
 944.08  36.733  23.766
 944.58  36.733  23.735
 945.08  36.733  23.735
 945.58  36.669  23.766
 946.08  36.733  23.735
 946.58  36.669  23.735
 947.08  36.797  23.735
 947.58  36.669  23.735
 948.08  36.733  23.735
 948.58  36.733  23.766
 949.08  36.733  23.735
 949.58  36.733  23.766
 950.08  36.669  23.735
 950.58  36.733  23.735
 951.08  36.669  23.766
 951.58  36.733  23.766
 952.08  36.669  23.705
 952.58  36.733  23.735
 953.09  36.669  23.766
 953.59  36.733  23.735
 954.09  36.733  23.735
 954.59  36.733  23.766
 955.09  36.797  23.705
 955.59  36.733  23.766
 956.09  36.797  23.766
 956.59  36.797  23.705
 957.09  36.733  23.735
 957.59  36.733  23.735
 958.09  36.733  23.735
 958.59  36.797  23.735
 959.09  36.669  23.735
 959.59  36.797  23.735
 960.09  36.733  23.735
 960.59  36.733  23.735
 961.09  36.797  23.735
 961.59  36.733  23.735
 962.09  36.669  23.766
 962.59  36.349  23.735
 963.09  36.733  23.735
 963.59  36.733  23.735
 964.09  36.733  23.766
 964.59  36.797  23.766
 965.09  36.861  23.735
 965.59  36.797  23.766
 966.09  36.733  23.735
 966.59  36.797  23.735
 967.09  36.733  23.766
 967.59  36.733  23.735
 968.09  36.733  23.766
 968.59  36.797  23.766
 969.09  36.797  23.735
 969.59  36.797  23.766
 970.09  36.797  23.766
 970.59  36.733  23.766
 971.09  36.797  23.766
 971.59  36.797  23.735
 972.09  36.733  23.766
 972.59  36.733  23.735
 973.09  36.797  23.735
 973.59  36.797  23.705
 974.09  36.797  23.705
 974.59  36.861  23.735
 975.09  36.797  23.705
 975.59  36.797  23.735
 976.09  36.797  23.766
 976.59  36.797  23.766
 977.09  36.797  23.735
 977.59  36.797  23.766
 978.09  36.797  23.766
 978.59  36.797  23.766
 979.09  36.797  23.766
 979.59  36.861  23.766
 980.09  36.861  23.766
 980.59  36.797  23.766
 981.09  36.733  23.735
 981.59  36.797  23.766
 982.09  36.797  23.735
 982.59  36.797  23.766
 983.09  36.797  23.766
 983.59  36.797  23.766
 984.09  36.797  23.735
 984.59  36.797  23.735
 985.09  36.861  23.735
 985.59  36.797  23.705
 986.09  36.861  23.735
 986.59  36.733  23.766
 987.09  36.861  23.766
 987.59  36.797  23.735
 988.09  36.861  23.735
 988.59  36.797  23.766
 989.09  36.925  23.766
 989.59  36.861  23.797
 990.09  36.925  23.766
 990.59  36.797  23.735
 991.09  36.861  23.766
 991.59  36.861  23.766
 992.09  36.861  23.735
 992.59  36.861  23.735
 993.09  36.861  23.735
 993.59  36.861  23.766
 994.09  36.861  23.766
 994.59  36.861  23.766
 995.09  36.861  23.735
 995.59  36.925  23.735
 996.09  36.733  23.766
 996.59  36.733  23.735
 997.09  36.669  23.766
 997.59  36.605  23.766
 998.09  36.605  23.766
 998.59  36.541  23.766
 999.09  36.605  23.766
 999.59  36.477  23.766
1000.09  36.477  23.766
1000.59  36.413  23.766
1001.09  36.349  23.766
1001.59  36.349  23.766
1002.09  36.349  23.766
1002.59  36.285  23.735
1003.09  36.285  23.797
1003.59  36.285  23.766
1004.09  36.221  23.766
1004.59  36.221  23.766
1005.09  36.157  23.766
1005.59  36.221  23.766
1006.09  36.093  23.766
1006.59  36.221  23.797
1007.09  36.157  23.735
1007.59  36.157  23.766
1008.09  36.093  23.766
1008.59  36.093  23.766
1009.09  36.093  23.766
1009.59  36.029  23.766
1010.09  36.029  23.797
1010.59  36.093  23.735
1011.09  36.029  23.735
1011.59  36.029  23.735
1012.09  36.029  23.735
1012.59  35.965  23.766
1013.09  35.965  23.797
1013.59  36.029  23.766
1014.09  35.965  23.766
1014.59  35.965  23.735
1015.09  35.965  23.766
1015.59  36.029  23.766
1016.09  36.093  23.766
1016.59  35.965  23.766
1017.09  35.965  23.766
1017.59  35.965  23.766
1018.09  35.965  23.797
1018.59  35.901  23.766
1019.09  35.965  23.766
1019.59  35.901  23.735
1020.09  36.029  23.766
1020.59  35.901  23.766
1021.09  35.901  23.766
1021.59  35.901  23.766
1022.09  35.901  23.735
1022.59  35.965  23.766
1023.09  35.901  23.735
1023.59  35.837  23.766
1024.09  35.901  23.766
1024.59  35.837  23.766
1025.09  35.901  23.766
1025.59  35.901  23.766
1026.09  35.901  23.766
1026.59  35.901  23.797
1027.09  35.837  23.766
1027.59  35.837  23.766
1028.09  35.773  23.766
1028.59  35.837  23.766
1029.09  35.837  23.766
1029.59  35.837  23.766
1030.09  35.837  23.766
1030.59  35.901  23.766
1031.09  35.837  23.735
1031.59  35.837  23.735
1032.09  35.837  23.766
1032.59  35.837  23.828
1033.09  35.837  23.797
1033.59  35.837  23.766
1034.09  35.837  23.766
1034.59  35.837  23.766
1035.09  35.901  23.735
1035.59  35.773  23.766
1036.09  35.773  23.766
1036.59  35.773  23.797
1037.09  35.709  23.735
1037.59  35.773  23.766
1038.09  35.773  23.766
1038.59  35.709  23.766
1039.09  35.709  23.766
1039.59  35.773  23.766
1040.09  35.773  23.766
1040.59  35.773  23.705
1041.09  35.773  23.797
1041.59  35.773  23.797
1042.09  35.773  23.766
1042.59  35.773  23.766
1043.09  35.773  23.797
1043.59  35.773  23.766
1044.09  35.645  23.766
1044.59  35.709  23.766
1045.09  35.645  23.766
1045.59  35.773  23.766
1046.09  35.709  23.766
1046.59  35.773  23.766
1047.09  35.709  23.766
1047.59  35.773  23.735
1048.09  35.709  23.766
1048.59  35.709  23.766
1049.09  35.773  23.766
1049.59  35.709  23.766
1050.09  35.773  23.735
1050.59  35.709  23.735
1051.09  35.773  23.797
1051.59  35.709  23.766
1052.09  35.709  23.766
1052.59  35.581  23.766
1053.09  35.773  23.766
1053.59  35.709  23.797
1054.09  35.709  23.735
1054.59  35.709  23.766
1055.09  35.709  23.797
1055.59  35.709  23.797
1056.09  35.709  23.766
1056.59  35.645  23.797
1057.09  35.709  23.797
1057.59  35.709  23.735
1058.09  35.837  23.766
1058.59  35.773  23.797
1059.09  35.709  23.797
1059.59  35.645  23.735
1060.09  35.709  23.797
1060.59  35.709  23.766
1061.09  35.709  23.766
1061.59  35.709  23.735
1062.09  35.645  23.797
1062.59  35.709  23.766
1063.09  35.709  23.766
1063.59  35.773  23.766
1064.09  35.709  23.766
1064.59  35.645  23.766
1065.09  35.709  23.766
1065.59  35.709  23.735
1066.10  35.709  23.766
1066.60  35.773  23.766
1067.10  35.709  23.766
1067.60  35.773  23.766
1068.10  35.709  23.766
1068.60  35.773  23.735
1069.10  35.709  23.766
1069.60  35.709  23.766
1070.10  35.773  23.766
1070.60  35.709  23.766
1071.10  35.645  23.735
1071.60  35.709  23.766
1072.10  35.709  23.797
1072.60  35.773  23.766
1073.10  35.709  23.766
1073.60  35.709  23.766
1074.10  35.709  23.766
1074.60  35.709  23.766
1075.10  35.709  23.766
1075.60  35.709  23.766
1076.10  35.709  23.735
1076.60  35.709  23.766
1077.10  35.709  23.766
1077.60  35.709  23.766
1078.10  35.645  23.766
1078.60  35.645  23.766
1079.10  35.773  23.735
1079.60  35.709  23.797
1080.10  35.709  23.766
1080.60  35.709  23.766
1081.10  35.773  23.766
1081.60  35.709  23.766
1082.10  35.773  23.766
1082.60  35.645  23.766
1083.10  35.645  23.766
1083.60  35.709  23.735
1084.10  35.837  23.766
1084.60  35.773  23.797
1085.10  35.709  23.797
1085.60  35.645  23.797
1086.10  35.773  23.797
1086.60  35.645  23.797
1087.10  35.709  23.766
1087.60  35.709  23.766
1088.10  35.709  23.797
1088.60  35.709  23.766
1089.10  35.709  23.797
1089.60  35.645  23.766
1090.10  35.709  23.766
1090.60  35.709  23.766
1091.10  35.645  23.766
1091.60  35.709  23.766
1092.10  35.645  23.766
1092.60  35.645  23.705
1093.10  35.773  23.735
1093.60  35.709  23.735
1094.10  35.645  23.766
1094.60  35.709  23.766
1095.10  35.709  23.766
1095.60  35.773  23.766
1096.10  35.645  23.766
1096.60  35.709  23.797
1097.10  35.709  23.766
1097.60  35.709  23.766
1098.10  35.709  23.766
1098.60  35.773  23.828
1099.10  35.709  23.797
1099.60  35.709  23.766
1100.10  35.709  23.797
1100.60  35.773  23.766
1101.10  35.773  23.797
1101.60  35.709  23.797
1102.10  35.709  23.797
1102.60  35.709  23.797
1103.10  35.773  23.766
1103.60  35.709  23.797
1104.10  35.773  23.797
1104.60  35.773  23.735
1105.10  35.709  23.797
1105.60  35.709  23.828
1106.10  35.709  23.797
1106.60  35.773  23.797
1107.10  35.773  23.797
1107.60  35.709  23.766
1108.10  35.773  23.797
1108.60  35.773  23.828
1109.10  35.709  23.828
1109.60  35.709  23.766
1110.10  35.773  23.766
1110.60  35.709  23.766
1111.10  35.709  23.797
1111.60  35.645  23.766
1112.10  35.773  23.766
1112.60  35.709  23.828
1113.10  35.709  23.766
1113.60  35.837  23.766
1114.10  35.709  23.766
1114.60  35.709  23.766
1115.10  35.773  23.766
1115.60  35.773  23.766
1116.10  35.709  23.766
1116.60  35.709  23.797
1117.10  35.773  23.797
1117.60  35.773  23.797
1118.10  35.773  23.766
1118.60  35.837  23.766
1119.10  35.773  23.766
1119.60  35.773  23.766
1120.10  35.773  23.766
1120.60  35.773  23.766
1121.10  35.773  23.797
1121.60  35.773  23.766
1122.10  35.773  23.797
1122.60  35.837  23.766
1123.10  35.837  23.797
1123.60  35.773  23.797
1124.10  35.773  23.735
1124.60  35.773  23.797
1125.10  35.773  23.797
1125.60  35.773  23.766
1126.10  35.773  23.766
1126.60  35.773  23.797
1127.10  35.837  23.797
1127.60  35.837  23.735
1128.10  35.773  23.766
1128.60  35.837  23.797
1129.10  35.773  23.797
1129.60  35.837  23.797
1130.10  35.773  23.797
1130.60  35.901  23.766
1131.10  35.837  23.766
1131.60  35.837  23.797
1132.10  35.773  23.766
1132.60  35.837  23.797
1133.10  35.901  23.766
1133.60  35.837  23.828
1134.10  35.837  23.797
1134.60  35.901  23.766
1135.10  35.901  23.797
1135.60  35.965  23.766
1136.10  35.901  23.766
1136.60  35.837  23.797
1137.10  35.901  23.797
1137.60  35.901  23.797
1138.10  35.901  23.797
1138.60  35.901  23.828
1139.10  36.029  23.828
1139.60  35.901  23.766
1140.10  35.965  23.797
1140.60  35.965  23.797
1141.10  35.965  23.797
1141.60  35.901  23.797
1142.10  35.965  23.797
1142.60  35.901  23.766
1143.10  35.901  23.735
1143.60  35.901  23.766
1144.10  35.965  23.797
1144.60  35.901  23.766
1145.10  35.965  23.797
1145.60  36.029  23.766
1146.10  35.965  23.797
1146.60  36.029  23.766
1147.10  36.029  23.735
1147.60  36.029  23.797
1148.10  36.029  23.766
1148.60  36.029  23.766
1149.10  35.965  23.797
1149.60  36.093  23.766
1150.10  36.029  23.797
1150.60  36.285  23.797
1151.10  36.093  23.797
1151.60  36.029  23.828
1152.10  36.029  23.797
1152.60  36.093  23.797
1153.10  35.965  23.766
1153.60  36.093  23.797
1154.10  36.029  23.797
1154.60  36.093  23.766
1155.10  36.093  23.797
1155.60  36.093  23.766
1156.10  36.157  23.797
1156.60  36.093  23.797
1157.10  36.093  23.766
1157.60  36.029  23.797
1158.10  36.093  23.828
1158.60  36.157  23.797
1159.10  36.093  23.828
1159.60  36.093  23.797
1160.10  36.093  23.797
1160.60  36.093  23.766
1161.10  36.093  23.797
1161.60  36.221  23.797
1162.10  36.093  23.797
1162.60  36.093  23.766
1163.10  36.157  23.828
1163.60  36.093  23.797
1164.10  36.157  23.735
1164.60  36.157  23.797
1165.10  36.157  23.797
1165.60  36.157  23.797
1166.10  36.157  23.797
1166.60  36.157  23.797
1167.10  36.157  23.735
1167.60  36.221  23.797
1168.10  36.157  23.766
1168.60  36.157  23.828
1169.10  36.157  23.828
1169.60  36.157  23.766
1170.10  36.157  23.797
1170.60  36.093  23.797
1171.10  36.157  23.766
1171.60  36.157  23.797
1172.10  36.157  23.797
1172.60  36.157  23.797
1173.10  36.157  23.797
1173.60  36.285  23.797
1174.10  36.221  23.797
1174.60  36.221  23.766
1175.10  36.157  23.797
1175.60  36.157  23.797
1176.10  36.157  23.766
1176.60  36.157  23.766
1177.10  36.157  23.828
1177.60  36.221  23.797
1178.10  36.157  23.797
1178.60  36.221  23.797
1179.11  36.221  23.797
1179.61  36.221  23.828
1180.11  36.157  23.797
1180.61  36.221  23.797
1181.11  36.157  23.766
1181.61  36.157  23.797
1182.11  36.221  23.797
1182.61  36.221  23.797
1183.11  36.285  23.797
1183.61  36.221  23.828
1184.11  36.157  23.766
1184.61  36.157  23.828
1185.11  36.221  23.797
1185.61  36.221  23.797
1186.11  36.221  23.797
1186.61  36.221  23.828
1187.11  36.093  23.797
1187.61  36.221  23.797
1188.11  36.157  23.797
1188.61  36.285  23.797
1189.11  36.221  23.828
1189.61  36.221  23.797
1190.11  36.221  23.828
1190.61  36.285  23.766
1191.11  36.157  23.797
1191.61  36.221  23.797
1192.11  36.285  23.828
1192.61  36.285  23.828
1193.11  36.285  23.766
1193.61  36.285  23.828
1194.11  36.221  23.797
1194.61  36.221  23.797
1195.11  36.221  23.797
1195.61  36.221  23.859
1196.11  36.285  23.828
1196.61  36.221  23.828
1197.11  36.221  23.766
1197.61  36.349  23.797
1198.11  36.285  23.797
1198.61  36.285  23.735
1199.11  36.221  23.797
1199.61  36.221  23.797
1200.11  36.285  23.828
1200.61  36.221  23.828
1201.11  36.285  23.797
1201.61  36.285  23.797
1202.11  36.285  23.735
1202.61  36.285  23.797
1203.11  36.285  23.797
1203.61  36.221  23.828
1204.11  36.221  23.797
1204.61  36.285  23.797
1205.11  36.221  23.797
1205.61  36.349  23.797
1206.11  36.221  23.797
1206.61  36.221  23.828
1207.11  36.349  23.797
1207.61  36.285  23.797
1208.11  36.221  23.766
1208.61  36.349  23.797
1209.11  36.285  23.797
1209.61  36.285  23.797
1210.11  36.285  23.828
1210.61  36.285  23.797
1211.11  36.413  23.797
1211.61  36.285  23.797
1212.11  36.285  23.797
1212.61  36.349  23.797
1213.11  36.221  23.797
1213.61  36.285  23.797
1214.11  36.285  23.828
1214.61  36.349  23.797
1215.11  36.349  23.828
1215.61  36.285  23.766
1216.11  36.349  23.828
1216.61  36.349  23.828
1217.11  36.285  23.766
1217.61  36.349  23.797
1218.11  36.349  23.828
1218.61  36.349  23.797
1219.11  36.221  23.797
1219.61  36.349  23.828
1220.11  36.349  23.828
1220.61  36.349  23.828
1221.11  36.413  23.797
1221.61  36.349  23.797
1222.11  36.285  23.859
1222.61  36.349  23.828
1223.11  36.349  23.797
1223.61  36.349  23.828
1224.11  36.349  23.797
1224.61  36.413  23.797
1225.11  36.477  23.797
1225.61  36.413  23.828
1226.11  36.285  23.797
1226.61  36.349  23.828
1227.11  36.349  23.797
1227.61  36.413  23.828
1228.11  36.349  23.828
1228.61  36.349  23.797
1229.11  36.349  23.797
1229.61  36.349  23.797
1230.11  36.285  23.797
1230.61  36.349  23.828
1231.11  36.349  23.797
1231.61  36.349  23.797
1232.11  36.413  23.797
1232.61  36.413  23.797
1233.11  36.349  23.766
1233.61  36.349  23.797
1234.11  36.477  23.797
1234.61  36.221  23.828
1235.11  36.413  23.797
1235.61  36.413  23.797
1236.11  36.413  23.828
1236.61  36.413  23.797
1237.11  36.413  23.828
1237.61  36.349  23.797
1238.11  36.413  23.828
1238.61  36.349  23.797
1239.11  36.413  23.766
1239.61  36.413  23.828
1240.11  36.349  23.797
1240.61  36.413  23.797
1241.11  36.413  23.797
1241.61  36.349  23.828
1242.11  36.413  23.828
1242.61  36.413  23.797
1243.11  36.477  23.828
1243.61  36.477  23.828
1244.11  36.413  23.797
1244.61  36.477  23.797
1245.11  36.413  23.797
1245.61  36.349  23.797
1246.11  36.413  23.828
1246.61  36.413  23.828
1247.11  36.413  23.828
1247.61  36.477  23.828
1248.11  36.413  23.828
1248.61  36.413  23.797
1249.11  36.413  23.766
1249.61  36.413  23.828
1250.11  36.413  23.828
1250.61  36.413  23.828
1251.11  36.413  23.766
1251.61  36.413  23.828
1252.11  36.477  23.828
1252.61  36.413  23.828
1253.11  36.477  23.797
1253.61  36.413  23.828
1254.11  36.477  23.828
1254.61  36.413  23.797
1255.11  36.413  23.797
1255.61  36.477  23.828
1256.11  36.541  23.797
1256.61  36.477  23.797
1257.11  36.477  23.797
1257.61  36.477  23.859
1258.11  36.477  23.797
1258.61  36.413  23.797
1259.11  36.541  23.797
1259.61  36.477  23.828
1260.11  36.477  23.828
1260.61  36.413  23.828
1261.11  36.413  23.828
1261.61  36.541  23.828
1262.11  36.413  23.828
1262.61  36.413  23.828
1263.11  36.413  23.828
1263.61  36.541  23.797
1264.11  36.477  23.828
1264.61  36.477  23.797
1265.11  36.477  23.797
1265.61  36.541  23.828
1266.11  36.541  23.828
1266.61  36.541  23.828
1267.11  36.477  23.797
1267.61  36.477  23.828
1268.11  36.541  23.859
1268.61  36.477  23.828
1269.11  36.477  23.828
1269.61  36.605  23.859
1270.11  36.413  23.828
1270.61  36.477  23.828
1271.11  36.541  23.859
1271.61  36.541  23.828
1272.11  36.413  23.766
1272.61  36.477  23.797
1273.11  36.477  23.797
1273.61  36.477  23.797
1274.11  36.541  23.797
1274.61  36.413  23.797
1275.11  36.477  23.797
1275.61  36.477  23.797
1276.11  36.477  23.828
1276.61  36.477  23.828
1277.11  36.477  23.797
1277.61  36.541  23.828
1278.11  36.541  23.828
1278.61  36.477  23.828
1279.11  36.541  23.828
1279.61  36.541  23.828
1280.11  36.541  23.797
1280.61  36.541  23.859
1281.11  36.541  23.828
1281.61  36.541  23.828
1282.11  36.477  23.828
1282.61  36.541  23.828
1283.11  36.541  23.828
1283.61  36.541  23.828
1284.11  36.541  23.859
1284.61  36.541  23.828
1285.11  36.477  23.797
1285.61  36.605  23.828
1286.11  36.541  23.859
1286.61  36.541  23.828
1287.11  36.605  23.828
1287.61  36.541  23.797
1288.11  36.541  23.828
1288.61  36.605  23.859
1289.11  36.541  23.828
1289.61  36.541  23.828
1290.11  36.541  23.828
1290.61  36.541  23.828
1291.11  36.541  23.828
1291.61  36.541  23.859
1292.11  36.541  23.828
1292.62  36.541  23.828
1293.12  36.605  23.797
1293.62  36.605  23.828
1294.12  36.541  23.828
1294.62  36.541  23.797
1295.12  36.605  23.828
1295.62  36.541  23.797
1296.12  36.541  23.797
1296.62  36.541  23.828
1297.12  36.605  23.828
1297.62  36.541  23.859
1298.12  36.669  23.797
1298.62  36.541  23.797
1299.12  36.605  23.828
1299.62  36.541  23.828
1300.12  36.669  23.828
1300.62  36.541  23.828
1301.12  36.605  23.797
1301.62  36.605  23.828
1302.12  36.669  23.859
1302.62  36.541  23.828
1303.12  36.605  23.828
1303.62  36.541  23.828
1304.12  36.605  23.828
1304.62  36.605  23.828
1305.12  36.605  23.889
1305.62  36.541  23.828
1306.12  36.669  23.828
1306.62  36.541  23.859
1307.12  36.669  23.797
1307.62  36.605  23.828
1308.12  36.669  23.828
1308.62  36.605  23.828
1309.12  36.605  23.859
1309.62  36.605  23.859
1310.12  36.605  23.828
1310.62  36.605  23.828
1311.12  36.605  23.797
1311.62  36.605  23.859
1312.12  36.605  23.828
1312.62  36.605  23.828
1313.12  36.541  23.797
1313.62  36.605  23.828
1314.12  36.605  23.797
1314.62  36.605  23.828
1315.12  36.669  23.859
1315.62  36.605  23.828
1316.12  36.605  23.828
1316.62  36.605  23.828
1317.12  36.669  23.828
1317.62  36.669  23.828
1318.12  36.605  23.859
1318.62  36.605  23.828
1319.12  36.669  23.859
1319.62  36.669  23.828
1320.12  36.605  23.828
1320.62  36.605  23.828
1321.12  36.733  23.797
1321.62  36.669  23.828
1322.12  36.733  23.859
1322.62  36.605  23.859
1323.12  36.605  23.828
1323.62  36.669  23.859
1324.12  36.669  23.859
1324.62  36.605  23.859
1325.12  36.605  23.828
1325.62  36.669  23.859
1326.12  36.605  23.859
1326.62  36.605  23.828
1327.12  36.669  23.797
1327.62  36.605  23.828
1328.12  36.605  23.797
1328.62  36.669  23.828
1329.12  36.541  23.828
1329.62  36.669  23.951
1330.12  36.669  23.797
1330.62  36.733  23.859
1331.12  36.669  23.859
1331.62  36.669  23.859
1332.12  36.733  23.828
1332.62  36.669  23.828
1333.12  36.669  23.859
1333.62  36.605  23.859
1334.12  36.669  23.859
1334.62  36.669  23.828
1335.12  36.669  23.828
1335.62  36.669  23.828
1336.12  36.605  23.797
1336.62  36.669  23.828
1337.12  36.669  23.828
1337.62  36.669  23.828
1338.12  36.669  23.828
1338.62  36.605  23.828
1339.12  36.733  23.828
1339.62  36.797  23.828
1340.12  36.605  23.828
1340.62  36.669  23.828
1341.12  36.669  23.828
1341.62  36.669  23.828
1342.12  36.669  23.828
1342.62  36.669  23.828
1343.12  36.605  23.828
1343.62  36.669  23.828
1344.12  36.733  23.859
1344.62  36.733  23.828
1345.12  36.733  23.828
1345.62  36.669  23.828
1346.12  36.733  23.859
1346.62  36.797  23.859
1347.12  36.733  23.859
1347.62  36.733  23.828
1348.12  36.669  23.859
1348.62  36.797  23.889
1349.12  36.733  23.859
1349.62  36.733  23.828
1350.12  36.733  23.859
1350.62  36.797  23.859
1351.12  36.797  23.859
1351.62  36.669  23.889
1352.12  36.733  23.859
1352.62  36.733  23.859
1353.12  36.797  23.859
1353.62  36.733  23.859
1354.12  36.733  23.859
1354.62  36.797  23.828
1355.12  36.733  23.859
1355.62  36.733  23.859
1356.12  36.797  23.828
1356.62  36.733  23.828
1357.12  36.733  23.828
1357.62  36.797  23.859
1358.12  36.797  23.859
1358.62  36.733  23.797
1359.12  36.797  23.828
1359.62  36.733  23.859
1360.12  36.733  23.828
1360.62  36.733  23.797
1361.12  36.733  23.859
1361.62  36.797  23.828
1362.12  36.733  23.859
1362.62  36.797  23.859
1363.12  36.733  23.859
1363.62  36.861  23.828
1364.12  36.733  23.859
1364.62  36.733  23.859
1365.12  36.797  23.828
1365.62  36.797  23.859
1366.12  36.669  23.828
1366.62  36.797  23.797
1367.12  36.733  23.859
1367.62  36.733  23.859
1368.12  36.733  23.859
1368.62  36.733  23.797
1369.12  36.797  23.828
1369.62  36.733  23.859
1370.12  36.733  23.828
1370.62  36.861  23.828
1371.12  36.733  23.828
1371.62  36.669  23.828
1372.12  36.733  23.828
1372.62  36.797  23.859
1373.12  36.797  23.859
1373.62  36.733  23.828
1374.12  36.797  23.859
1374.62  36.669  23.859
1375.12  36.797  23.859
1375.62  36.797  23.828
1376.12  36.797  23.797
1376.62  36.861  23.828
1377.12  36.797  23.859
1377.62  36.733  23.828
1378.12  36.733  23.859
1378.62  36.797  23.859
1379.12  36.925  23.828
1379.62  36.669  23.859
1380.12  36.797  23.859
1380.62  36.797  23.859
1381.12  36.797  23.828
1381.62  36.797  23.859
1382.12  36.797  23.859
1382.62  36.797  23.859
1383.12  36.861  23.920
1383.62  36.861  23.859
1384.12  36.733  23.859
1384.62  36.797  23.859
1385.12  36.861  23.859
1385.62  36.797  23.859
1386.12  36.669  23.828
1386.62  36.797  23.859
1387.12  36.797  23.859
1387.62  36.797  23.859
1388.12  36.797  23.859
1388.62  36.797  23.859
1389.12  36.861  23.889
1389.62  36.797  23.828
1390.12  36.797  23.859
1390.62  36.797  23.859
1391.12  36.797  23.859
1391.62  36.797  23.859
1392.12  36.797  23.859
1392.62  36.861  23.828
1393.12  36.861  23.889
1393.62  36.797  23.828
1394.12  36.861  23.859
1394.62  36.733  23.889
1395.12  36.925  23.859
1395.62  36.797  23.859
1396.12  36.733  23.889
1396.62  36.797  23.828
1397.12  36.861  23.859
1397.62  36.797  23.859
1398.12  36.861  23.859
1398.62  36.797  23.859
1399.12  36.797  23.859
1399.62  36.797  23.828
1400.12  36.861  23.951
1400.62  36.861  23.859
1401.12  36.797  23.859
1401.62  36.797  23.859
1402.12  36.797  23.859
1402.62  36.861  23.859
1403.12  36.797  23.859
1403.62  36.989  23.859
1404.12  36.797  23.859
1404.62  36.861  23.828
1405.12  36.861  23.828
1405.62  36.861  23.889
1406.12  36.925  23.859
1406.62  36.861  23.859
1407.12  36.861  23.828
1407.62  36.861  23.859
1408.12  36.797  23.889
1408.62  36.861  23.859
1409.12  36.797  23.859
1409.62  36.861  23.859
1410.12  36.861  23.859
1410.62  36.797  23.889
1411.12  36.797  23.859
1411.62  36.797  23.889
1412.12  36.861  23.859
1412.62  36.861  23.889
1413.12  36.925  23.859
1413.62  36.861  23.889
1414.12  36.925  23.859
1414.62  36.925  23.859
1415.12  36.797  23.828
1415.62  36.861  23.859
1416.12  36.925  23.797
1416.63  36.861  23.889
1417.13  36.861  23.859
1417.63  36.925  23.859
1418.13  36.861  23.859
1418.63  36.733  23.859
1419.13  36.925  23.859
1419.63  36.925  23.859
1420.13  36.925  23.889
1420.63  36.925  23.889
1421.13  36.925  23.859
1421.63  36.925  23.889
1422.13  36.925  23.859
1422.63  36.925  23.859
1423.13  36.989  23.889
1423.63  36.925  23.859
1424.13  36.861  23.859
1424.63  36.925  23.859
1425.13  36.925  23.859
1425.63  36.925  23.859
1426.13  36.925  23.859
1426.63  36.861  23.859
1427.13  36.925  23.889
1427.63  36.925  23.859
1428.13  36.989  23.889
1428.63  36.861  23.889
1429.13  36.989  23.859
1429.63  36.989  23.889
1430.13  36.861  23.859
1430.63  36.925  23.859
1431.13  36.989  23.859
1431.63  36.861  23.859
1432.13  36.925  23.889
1432.63  36.925  23.889
1433.13  36.925  23.889
1433.63  36.989  23.889
1434.13  36.925  23.889
1434.63  36.925  23.859
1435.13  36.925  23.889
1435.63  36.861  23.889
1436.13  36.925  23.859
1436.63  36.861  23.889
1437.13  36.989  23.889
1437.63  36.925  23.889
1438.13  36.925  23.859
1438.63  37.053  23.859
1439.13  36.861  23.889
1439.63  36.925  23.889
1440.13  36.989  23.889
1440.63  36.925  23.859
1441.13  36.925  23.859
1441.63  36.925  23.859
1442.13  36.861  23.859
1442.63  36.925  23.859
1443.13  36.925  23.797
1443.63  36.989  23.889
1444.13  36.925  23.859
1444.63  36.989  23.889
1445.13  36.925  23.889
1445.63  36.989  23.859
1446.13  36.925  23.889
1446.63  36.989  23.889
1447.13  36.989  23.859
1447.63  36.989  23.889
1448.13  36.989  23.859
1448.63  36.989  23.859
1449.13  36.989  23.859
1449.63  36.989  23.889
1450.13  36.989  23.889
1450.63  36.925  23.889
1451.13  37.053  23.920
1451.63  36.989  23.859
1452.13  36.989  23.859
1452.63  36.989  23.889
1453.13  36.989  23.920
1453.63  36.989  23.920
1454.13  36.989  23.859
1454.63  36.989  23.889
1455.13  36.989  23.889
1455.63  36.989  23.889
1456.13  37.053  23.889
1456.63  36.989  23.889
1457.13  36.989  23.889
1457.63  36.989  23.889
1458.13  36.925  23.889
1458.63  37.053  23.859
1459.13  36.989  23.889
1459.63  36.989  23.889
1460.13  36.989  23.889
1460.63  37.053  23.889
1461.13  37.053  23.889
1461.63  36.989  23.889
1462.13  36.989  23.889
1462.63  36.989  23.859
1463.13  36.989  23.859
1463.63  36.989  23.859
1464.13  37.053  23.859
1464.63  36.989  23.889
1465.13  37.053  23.920
1465.63  37.053  23.920
1466.13  36.989  23.889
1466.63  37.053  23.889
1467.13  36.989  23.889
1467.63  37.053  23.828
1468.13  37.053  23.889
1468.63  37.053  23.889
1469.13  37.053  23.889
1469.63  36.989  23.889
1470.13  37.053  23.889
1470.63  36.989  23.889
1471.13  37.053  23.859
1471.63  37.053  23.889
1472.13  36.989  23.889
1472.63  37.053  23.889
1473.13  37.053  23.889
1473.63  36.989  23.889
1474.13  37.117  23.889
1474.63  37.053  23.859
1475.13  37.053  23.889
1475.63  37.053  23.889
1476.13  36.989  23.889
1476.63  37.053  23.889
1477.13  36.989  23.889
1477.63  37.117  23.889
1478.13  36.989  23.889
1478.63  37.053  23.859
1479.13  37.053  23.889
1479.63  36.989  23.889
1480.13  37.053  23.889
1480.63  37.117  23.889
1481.13  37.117  23.889
1481.63  37.053  23.889
1482.13  36.989  23.859
1482.63  37.181  23.859
1483.13  37.053  23.859
1483.63  37.053  23.920
1484.13  37.053  23.920
1484.63  37.053  23.889
1485.13  37.053  23.889
1485.63  37.053  23.889
1486.13  37.053  23.889
1486.63  37.117  23.889
1487.13  36.989  23.889
1487.63  37.053  23.889
1488.13  37.053  23.828
1488.63  37.053  23.828
1489.13  37.117  23.889
1489.63  37.053  23.920
1490.13  37.117  23.889
1490.63  37.053  23.889
1491.13  37.117  23.889
1491.63  37.053  23.859
1492.13  37.053  23.859
1492.63  37.053  23.859
1493.13  37.053  23.889
1493.63  37.053  23.889
1494.13  37.053  23.920
1494.63  37.053  23.889
1495.13  37.053  23.889
1495.63  37.053  23.889
1496.13  37.053  23.889
1496.63  37.117  23.889
1497.13  37.181  23.889
1497.63  37.117  23.889
1498.13  37.053  23.889
1498.63  37.117  23.889
1499.13  37.053  23.859
1499.63  37.117  23.859
1500.13  37.117  23.889
1500.63  37.053  23.920
1501.13  37.053  23.920
1501.63  37.053  23.859
1502.13  37.117  23.889
1502.63  37.117  23.889
1503.13  37.117  23.951
1503.63  37.053  23.889
1504.13  37.117  23.889
1504.63  37.053  23.889
1505.13  37.117  23.889
1505.63  37.117  23.889
1506.13  37.053  23.889
1506.63  37.181  23.889
1507.13  37.117  23.859
1507.63  37.181  23.889
1508.13  37.117  23.889
1508.63  37.181  23.859
1509.13  37.117  23.889
1509.63  37.117  23.859
1510.13  37.181  23.889
1510.63  37.117  23.889
1511.13  37.117  23.920
1511.63  37.117  23.889
1512.13  37.117  23.889
1512.63  37.117  23.889
1513.13  37.117  23.889
1513.63  37.181  23.889
1514.13  37.117  23.889
1514.63  37.117  23.889
1515.13  37.117  23.889
1515.63  37.117  23.889
1516.13  37.117  23.859
1516.63  37.117  23.889
1517.13  37.181  23.920
1517.63  37.181  23.920
1518.13  37.181  23.889
1518.63  37.181  23.859
1519.13  37.117  23.889
1519.63  37.117  23.920
1520.13  37.117  23.920
1520.63  37.117  23.889
1521.13  37.117  23.889
1521.63  37.181  23.889
1522.13  37.181  23.920
1522.63  37.181  23.889
1523.13  37.117  23.889
1523.63  37.181  23.889
1524.13  37.117  23.920
1524.63  37.117  23.920
1525.13  37.117  23.951
1525.63  37.117  23.889
1526.13  37.117  23.859
1526.63  37.181  23.889
1527.13  37.181  23.889
1527.63  37.181  23.920
1528.13  37.117  23.920
1528.63  37.117  23.889
1529.13  37.181  23.889
1529.64  37.117  23.889
1530.14  37.181  23.889
1530.64  37.181  23.889
1531.14  37.181  23.889
1531.64  37.181  23.920
1532.14  37.181  23.889
1532.64  37.181  23.889
1533.14  37.245  23.889
1533.64  37.181  23.889
1534.14  37.245  23.889
1534.64  37.181  23.920
1535.14  37.181  23.889
1535.64  37.181  23.889
1536.14  37.245  23.920
1536.64  37.245  23.889
1537.14  37.181  23.920
1537.64  37.181  23.889
1538.14  37.181  23.889
1538.64  37.181  23.920
1539.14  37.181  23.920
1539.64  37.181  23.889
1540.14  37.181  23.920
1540.64  37.181  23.920
1541.14  37.117  23.920
1541.64  37.117  23.920
1542.14  37.181  23.920
1542.64  37.181  23.920
1543.14  37.181  23.889
1543.64  37.181  23.920
1544.14  37.181  23.889
1544.64  37.181  23.920
1545.14  37.181  23.889
1545.64  37.245  23.951
1546.14  37.373  23.889
1546.64  37.181  23.920
1547.14  37.181  23.951
1547.64  37.181  23.889
1548.14  37.245  23.920
1548.64  37.245  23.889
1549.14  37.181  23.889
1549.64  37.245  23.920
1550.14  37.181  23.920
1550.64  37.245  23.920
1551.14  37.245  23.889
1551.64  37.181  23.920
1552.14  37.181  23.920
1552.64  37.245  23.889
1553.14  37.181  23.889
1553.64  37.309  23.889
1554.14  37.245  23.889
1554.64  37.181  23.920
1555.14  37.181  23.920
1555.64  37.245  23.920
1556.14  37.245  23.889
1556.64  37.117  23.920
1557.14  37.245  23.889
1557.64  37.181  23.889
1558.14  37.245  23.889
1558.64  37.245  23.920
1559.14  37.245  23.951
1559.64  37.181  23.951
1560.14  37.181  23.889
1560.64  37.181  23.889
1561.14  37.309  23.951
1561.64  37.245  23.889
1562.14  37.309  23.889
1562.64  37.309  23.920
1563.14  37.181  23.889
1563.64  37.245  23.920
1564.14  37.309  23.889
1564.64  37.245  23.859
1565.14  37.117  23.889
1565.64  37.245  23.920
1566.14  37.309  23.920
1566.64  37.309  23.951
1567.14  37.181  23.859
1567.64  37.181  23.920
1568.14  37.117  23.920
1568.64  37.309  23.951
1569.14  37.245  23.889
1569.64  37.309  23.920
1570.14  37.245  23.920
1570.64  37.309  23.951
1571.14  37.181  23.920
1571.64  37.437  23.920
1572.14  37.245  23.920
1572.64  37.117  23.920
1573.14  37.245  23.889
1573.64  37.245  23.920
1574.14  37.245  23.920
1574.64  37.245  23.920
1575.14  37.245  23.859
1575.64  37.245  23.951
1576.14  37.309  23.951
1576.64  37.245  23.920
1577.14  37.181  23.951
1577.64  37.245  23.889
1578.14  37.245  23.920
1578.64  37.245  23.920
1579.14  37.309  23.920
1579.64  37.245  23.920
1580.14  37.309  23.920
1580.64  37.245  23.920
1581.14  37.309  23.889
1581.64  37.181  23.920
1582.14  37.245  23.920
1582.64  37.245  23.920
1583.14  37.309  23.920
1583.64  37.309  23.920
1584.14  37.245  23.920
1584.64  37.181  23.889
1585.14  37.309  23.889
1585.64  37.373  23.951
1586.14  37.245  23.889
1586.64  37.245  23.889
1587.14  37.309  23.889
1587.64  37.245  23.920
1588.14  37.245  23.920
1588.64  37.309  23.920
1589.14  37.309  23.889
1589.64  37.245  23.889
1590.14  37.245  23.920
1590.64  37.245  23.920
1591.14  37.309  23.920
1591.64  37.309  23.889
1592.14  37.309  23.859
1592.64  37.309  23.889
1593.14  37.309  23.951
1593.64  37.309  23.920
1594.14  37.309  23.920
1594.64  37.309  23.920
1595.14  37.245  23.920
1595.64  37.309  23.889
1596.14  37.309  23.920
1596.64  37.309  23.889
1597.14  37.245  23.889
1597.64  37.373  23.889
1598.14  37.309  23.920
1598.64  37.245  23.920
1599.14  37.373  23.920
1599.64  37.309  23.920
1600.14  37.309  23.951
1600.64  37.309  23.920
1601.14  37.309  23.951
1601.64  37.309  23.920
1602.14  37.309  23.920
1602.64  37.181  23.920
1603.14  37.309  23.920
1603.64  37.309  23.920
1604.14  37.309  23.951
1604.64  37.309  23.920
1605.14  37.245  23.920
1605.64  37.309  23.951
1606.14  37.373  23.889
1606.64  37.373  23.920
1607.14  37.373  23.920
1607.64  37.309  23.920
1608.14  37.309  23.828
1608.64  37.309  23.889
1609.14  37.373  23.920
1609.64  37.309  23.920
1610.14  37.309  23.920
1610.64  37.309  23.920
1611.14  37.309  23.920
1611.64  37.373  23.920
1612.14  37.309  23.889
1612.64  37.309  23.920
1613.14  37.309  23.951
1613.64  37.373  23.920
1614.14  37.437  23.920
1614.64  37.309  23.951
1615.14  37.373  23.920
1615.64  37.309  23.951
1616.14  37.309  23.920
1616.64  37.309  23.982
1617.14  37.373  23.920
1617.64  37.373  23.889
1618.14  37.373  23.951
1618.64  37.309  23.920
1619.14  37.309  23.951
1619.64  37.309  23.920
1620.14  37.309  23.920
1620.64  37.309  23.951
1621.14  37.373  23.951
1621.64  37.309  23.889
1622.14  37.437  23.920
1622.64  37.309  23.920
1623.14  37.309  23.920
1623.64  37.373  23.920
1624.14  37.309  23.951
1624.64  37.309  23.920
1625.14  37.373  23.951
1625.64  37.437  23.951
1626.14  37.373  23.920
1626.64  37.373  23.920
1627.14  37.309  23.951
1627.64  37.373  23.920
1628.14  37.309  23.951
1628.64  37.373  23.920
1629.14  37.309  23.920
1629.64  37.309  23.920
1630.14  37.373  23.920
1630.64  37.437  23.951
1631.14  37.373  23.920
1631.64  37.309  23.920
1632.14  37.373  23.920
1632.64  37.309  23.951
1633.14  37.245  23.920
1633.64  37.373  23.920
1634.14  37.373  23.920
1634.64  37.437  23.920
1635.14  37.309  23.920
1635.64  37.309  23.920
1636.14  37.373  23.982
1636.64  37.373  23.920
1637.14  37.373  23.920
1637.64  37.437  23.951
1638.14  37.565  23.889
1638.64  37.309  23.951
1639.14  37.373  23.920
1639.64  37.373  23.951
1640.14  37.373  23.920
1640.64  37.373  23.920
1641.14  37.373  23.920
1641.64  37.373  23.982
1642.14  37.373  23.951
1642.65  37.373  23.951
1643.15  37.373  23.920
1643.65  37.373  23.951
1644.15  37.373  23.920
1644.65  37.437  23.920
1645.15  37.373  23.982
1645.65  37.437  23.920
1646.15  37.373  23.889
1646.65  37.437  23.951
1647.15  37.373  23.951
1647.65  37.437  23.920
1648.15  37.373  23.920
1648.65  37.437  23.920
1649.15  37.373  23.951
1649.65  37.373  23.951
1650.15  37.373  23.951
1650.65  37.373  23.982
1651.15  37.437  23.951
1651.65  37.373  23.951
1652.15  37.437  23.951
1652.65  37.373  23.951
1653.15  37.373  23.951
1653.65  37.373  23.920
1654.15  37.373  23.920
1654.65  37.437  23.920
1655.15  37.373  23.982
1655.65  37.437  23.920
1656.15  37.437  23.951
1656.65  37.437  23.951
1657.15  37.437  23.920
1657.65  37.437  23.920
1658.15  37.437  23.951
1658.65  37.373  23.920
1659.15  37.437  23.920
1659.65  37.501  23.920
1660.15  37.437  23.920
1660.65  37.373  23.920
1661.15  37.437  23.982
1661.65  37.437  23.951
1662.15  37.437  23.889
1662.65  37.309  23.920
1663.15  37.437  23.951
1663.65  37.437  23.920
1664.15  37.373  23.920
1664.65  37.437  23.951
1665.15  37.437  23.859
1665.65  37.501  23.951
1666.15  37.437  23.920
1666.65  37.437  23.920
1667.15  37.373  23.982
1667.65  37.437  23.951
1668.15  37.437  23.920
1668.65  37.501  23.951
1669.15  37.437  23.951
1669.65  37.437  23.951
1670.15  37.437  23.951
1670.65  37.373  23.951
1671.15  37.373  23.920
1671.65  37.437  23.951
1672.15  37.437  23.951
1672.65  37.437  23.920
1673.15  37.501  23.951
1673.65  37.437  23.951
1674.15  37.501  23.951
1674.65  37.437  23.920
1675.15  37.437  23.951
1675.65  37.501  23.920
1676.15  37.437  23.982
1676.65  37.437  23.920
1677.15  37.437  23.920
1677.65  37.565  23.951
1678.15  37.373  23.951
1678.65  37.501  23.951
1679.15  37.437  23.920
1679.65  37.437  23.920
1680.15  37.437  23.951
1680.65  37.437  23.951
1681.15  37.501  23.920
1681.65  37.437  23.951
1682.15  37.437  23.951
1682.65  37.565  23.951
1683.15  37.437  23.951
1683.65  37.437  23.920
1684.15  37.437  23.920
1684.65  37.501  23.951
1685.15  37.437  23.920
1685.65  37.501  23.951
1686.15  37.501  23.920
1686.65  37.437  23.982
1687.15  37.501  23.951
1687.65  37.437  23.889
1688.15  37.437  23.951
1688.65  37.501  23.920
1689.15  37.437  23.951
1689.65  37.437  23.951
1690.15  37.501  23.920
1690.65  37.437  23.920
1691.15  37.501  23.951
1691.65  37.501  23.982
1692.15  37.501  23.951
1692.65  37.501  23.951
1693.15  37.565  23.951
1693.65  37.501  23.951
1694.15  37.437  23.920
1694.65  37.501  23.920
1695.15  37.501  23.920
1695.65  37.437  23.982
1696.15  37.437  23.920
1696.65  37.501  23.951
1697.15  37.501  23.951
1697.65  37.501  23.951
1698.15  37.437  23.951
1698.65  37.437  23.951
1699.15  37.437  23.982
1699.65  37.501  23.982
1700.15  37.501  23.951
1700.65  37.501  23.951
1701.15  37.501  23.951
1701.65  37.501  23.920
1702.15  37.501  23.951
1702.65  37.501  23.982
1703.15  37.437  23.951
1703.65  37.437  23.951
1704.15  37.501  23.951
1704.65  37.501  23.951
1705.15  37.437  23.920
1705.65  37.437  23.920
1706.15  37.501  23.951
1706.65  37.501  23.951
1707.15  37.501  23.982
1707.65  37.501  23.951
1708.15  37.501  23.982
1708.65  37.501  23.920
1709.15  37.501  23.951
1709.65  37.437  23.951
1710.15  37.501  23.920
1710.65  37.501  23.920
1711.15  37.501  23.889
1711.65  37.501  23.951
1712.15  37.501  23.951
1712.65  37.501  23.951
1713.15  37.501  23.951
1713.65  37.501  23.920
1714.15  37.501  23.951
1714.65  37.309  23.951
1715.15  37.501  23.951
1715.65  37.565  23.920
1716.15  37.501  23.951
1716.65  37.565  23.951
1717.15  37.501  23.982
1717.65  37.501  24.013
1718.15  37.501  23.920
1718.65  37.501  23.951
1719.15  37.501  23.951
1719.65  37.437  24.013
1720.15  37.501  23.951
1720.65  37.501  23.982
1721.15  37.501  24.013
1721.65  37.501  23.951
1722.15  37.501  23.951
1722.65  37.565  23.951
1723.15  37.501  23.951
1723.65  37.565  23.951
1724.15  37.565  23.982
1724.65  37.501  23.951
1725.15  37.565  23.951
1725.65  37.437  24.013
1726.15  37.501  23.951
1726.65  37.501  23.951
1727.15  37.501  23.982
1727.65  37.501  23.951
1728.15  37.437  24.013
1728.65  37.501  23.951
1729.15  37.501  23.982
1729.65  37.501  23.951
1730.15  37.501  23.951
1730.65  37.501  23.951
1731.15  37.501  23.982
1731.65  37.565  23.951
1732.15  37.501  23.951
1732.65  37.565  23.951
1733.15  37.565  23.982
1733.65  37.501  23.951
1734.15  37.437  23.982
1734.65  37.501  23.982
1735.15  37.565  23.951
1735.65  37.501  23.982
1736.15  37.501  23.982
1736.65  37.565  23.951
1737.15  37.501  23.982
1737.65  37.501  23.951
1738.15  37.565  23.982
1738.65  37.501  23.982
1739.15  37.501  23.920
1739.65  37.565  23.951
1740.15  37.629  23.951
1740.65  37.565  23.982
1741.15  37.565  23.951
1741.65  37.501  23.951
1742.15  37.565  23.951
1742.65  37.501  23.982
1743.15  37.501  23.951
1743.65  37.501  23.982
1744.15  37.501  23.951
1744.65  37.501  23.951
1745.15  37.565  23.951
1745.65  37.501  23.951
1746.15  37.565  23.951
1746.65  37.501  23.951
1747.15  37.565  23.951
1747.65  37.501  23.982
1748.15  37.501  23.982
1748.65  37.565  23.951
1749.15  37.501  23.982
1749.65  37.565  23.951
1750.15  37.629  23.920
1750.65  37.629  23.951
1751.15  37.565  23.982
1751.65  37.501  23.951
1752.15  37.501  23.982
1752.65  37.565  23.951
1753.15  37.501  23.951
1753.65  37.437  23.982
1754.15  37.565  23.951
1754.65  37.501  23.951
1755.15  37.629  23.982
1755.66  37.565  24.013
1756.16  37.501  23.982
1756.66  37.565  23.951
1757.16  37.565  23.982
1757.66  37.565  23.951
1758.16  37.565  23.982
1758.66  37.565  24.013
1759.16  37.501  23.951
1759.66  37.565  23.951
1760.16  37.629  23.951
1760.66  37.501  23.982
1761.16  37.565  23.951
1761.66  37.565  23.982
1762.16  37.629  23.951
1762.66  37.629  23.951
1763.16  37.565  23.951
1763.66  37.565  23.982
1764.16  37.565  23.951
1764.66  37.565  23.951
1765.16  37.565  23.982
1765.66  37.501  23.951
1766.16  37.501  23.982
1766.66  37.629  23.982
1767.16  37.501  23.982
1767.66  37.565  24.013
1768.16  37.565  23.951
1768.66  37.501  23.951
1769.16  37.565  23.951
1769.66  37.565  23.951
1770.16  37.501  23.982
1770.66  37.629  23.951
1771.16  37.565  23.951
1771.66  37.565  23.951
1772.16  37.565  23.982
1772.66  37.629  23.951
1773.16  37.565  23.982
1773.66  37.565  24.013
1774.16  37.565  23.920
1774.66  37.693  23.951
1775.16  37.565  23.951
1775.66  37.565  23.982
1776.16  37.565  23.982
1776.66  37.629  23.859
1777.16  37.565  23.951
1777.66  37.565  23.951
1778.16  37.565  23.982
1778.66  37.565  23.982
1779.16  37.565  23.951
1779.66  37.565  23.982
1780.16  37.565  23.951
1780.66  37.501  23.951
1781.16  37.565  23.951
1781.66  37.629  23.982
1782.16  37.629  23.982
1782.66  37.565  23.982
1783.16  37.629  23.982
1783.66  37.501  23.951
1784.16  37.629  23.951
1784.66  37.629  23.920
1785.16  37.565  23.982
1785.66  37.565  23.951
1786.16  37.629  23.982
1786.66  37.629  23.951
1787.16  37.565  24.043
1787.66  37.565  23.982
1788.16  37.693  24.013
1788.66  37.629  23.982
1789.16  37.629  24.013
1789.66  37.629  23.951
1790.16  37.565  23.982
1790.66  37.629  23.951
1791.16  37.565  24.013
1791.66  37.629  23.920
1792.16  37.629  23.982
1792.66  37.565  23.920
1793.16  37.629  24.013
1793.66  37.565  23.982
1794.16  37.501  23.951
1794.66  37.629  23.951
1795.16  37.629  23.951
1795.66  37.629  23.982
1796.16  37.565  23.982
1796.66  37.565  23.951
1797.16  37.565  23.951
1797.66  37.629  24.013
1798.16  37.565  23.982
1798.66  37.629  23.982
1799.16  37.629  23.951
1799.66  37.693  23.951
1800.16  37.565  23.982
1800.66  37.629  23.982
1801.16  37.629  23.982
1801.66  37.629  24.013
1802.16  37.629  23.982
1802.66  37.629  23.982
1803.16  37.565  23.951
1803.66  37.629  23.920
1804.16  37.629  23.951
1804.66  37.629  23.951
1805.16  37.693  23.951
1805.66  37.565  23.951
1806.16  37.629  23.982
1806.66  37.629  23.982
1807.16  37.565  23.982
1807.66  37.629  23.982
1808.16  37.693  23.951
1808.66  37.629  23.982
1809.16  37.629  23.982
1809.66  37.629  23.982
1810.16  37.629  24.013
1810.66  37.629  23.982
1811.16  37.565  23.982
1811.66  37.629  23.982
1812.16  37.629  23.982
1812.66  37.629  23.982
1813.16  37.629  23.982
1813.66  37.629  23.982
1814.16  37.629  23.982
1814.66  37.629  23.982
1815.16  37.693  23.982
1815.66  37.693  23.982
1816.16  37.565  23.982
1816.66  37.693  24.013
1817.16  37.629  23.982
1817.66  37.629  23.982
1818.16  37.693  24.013
1818.66  37.629  24.013
1819.16  37.629  23.982
1819.66  37.629  24.013
1820.16  37.629  23.982
1820.66  37.693  23.982
1821.16  37.693  23.951
1821.66  37.629  23.982
1822.16  37.757  23.951
1822.66  37.629  23.982
1823.16  37.629  23.951
1823.66  37.629  24.013
1824.16  37.629  24.043
1824.66  37.693  23.982
1825.16  37.565  24.013
1825.66  37.693  23.982
1826.16  37.693  24.013
1826.66  37.629  23.982
1827.16  37.629  23.982
1827.66  37.693  23.982
1828.16  37.693  23.982
1828.66  37.629  23.982
1829.16  37.629  23.982
1829.66  37.629  23.982
1830.16  37.629  23.982
1830.66  37.693  23.951
1831.16  37.693  23.982
1831.66  37.693  23.982
1832.16  37.629  23.951
1832.66  37.693  24.013
1833.16  37.629  24.013
1833.66  37.629  23.982
1834.16  37.693  23.982
1834.66  37.693  23.982
1835.16  37.629  24.013
1835.66  37.693  24.013
1836.16  37.693  23.982
1836.66  37.629  23.982
1837.16  37.565  23.982
1837.66  37.565  23.982
1838.16  37.629  23.982
1838.66  37.629  24.013
1839.16  37.629  23.982
1839.66  37.693  23.951
1840.16  37.629  23.982
1840.66  37.693  23.982
1841.16  37.693  23.982
1841.66  37.629  24.013
1842.16  37.693  23.982
1842.66  37.693  23.951
1843.16  37.629  23.951
1843.66  37.629  23.982
1844.16  37.693  23.982
1844.66  37.629  23.982
1845.16  37.629  23.982
1845.66  37.693  23.982
1846.16  37.629  23.982
1846.66  37.629  24.013
1847.16  37.629  24.013
1847.66  37.629  23.982
1848.16  37.693  23.982
1848.66  37.629  23.982
1849.16  37.629  24.013
1849.66  37.693  23.982
1850.16  37.693  23.982
1850.66  37.693  23.982
1851.16  37.821  24.013
1851.66  37.693  23.982
1852.16  37.693  24.043
1852.66  37.629  23.982
1853.16  37.629  24.013
1853.66  37.693  23.982
1854.16  37.629  23.982
1854.66  37.629  24.013
1855.16  37.757  23.982
1855.66  37.565  24.013
1856.16  37.693  24.013
1856.66  37.693  23.951
1857.16  37.757  24.013
1857.66  37.629  23.982
1858.16  37.629  23.982
1858.66  37.693  23.982
1859.16  37.565  23.982
1859.66  37.629  24.013
1860.16  37.629  23.982
1860.66  37.693  23.982
1861.16  37.757  23.982
1861.66  37.693  23.982
1862.16  37.629  23.982
1862.66  37.693  23.982
1863.16  37.693  23.982
1863.66  37.693  23.982
1864.16  37.693  24.013
1864.66  37.629  23.982
1865.16  37.693  24.013
1865.66  37.757  24.013
1866.16  37.693  23.951
1866.66  37.757  24.013
1867.16  37.693  23.982
1867.66  37.693  23.951
1868.16  37.629  24.013
1868.66  37.693  23.982
1869.17  37.757  23.982
1869.67  37.693  24.013
1870.17  37.629  24.013
1870.67  37.693  23.951
1871.17  37.693  23.982
1871.67  37.757  23.982
1872.17  37.693  24.013
1872.67  37.757  23.982
1873.17  37.693  24.013
1873.67  37.693  24.013
1874.17  37.693  23.982
1874.67  37.693  24.043
1875.17  37.693  24.013
1875.67  37.693  23.982
1876.17  37.693  23.982
1876.67  37.693  23.982
1877.17  37.693  24.013
1877.67  37.693  23.982
1878.17  37.821  24.013
1878.67  37.629  23.982
1879.17  37.693  23.982
1879.67  37.693  24.013
1880.17  37.693  23.951
1880.67  37.693  24.013
1881.17  37.693  23.982
1881.67  37.693  23.982
1882.17  37.821  23.982
1882.67  37.693  23.982
1883.17  37.693  23.982
1883.67  37.693  24.013
1884.17  37.629  24.013
1884.67  37.693  24.013
1885.17  37.693  24.043
1885.67  37.693  24.013
1886.17  37.693  23.982
1886.67  37.693  23.982
1887.17  37.693  24.013
1887.67  37.693  23.951
1888.17  37.693  23.982
1888.67  37.629  24.043
1889.17  37.757  24.013
1889.67  37.693  23.982
1890.17  37.757  24.013
1890.67  37.757  23.982
1891.17  37.757  23.982
1891.67  37.757  24.013
1892.17  37.757  23.951
1892.67  37.693  23.982
1893.17  37.693  23.982
1893.67  37.757  24.013
1894.17  37.757  24.013
1894.67  37.693  23.982
1895.17  37.757  23.982
1895.67  37.757  24.013
1896.17  37.757  24.013
1896.67  37.757  24.013
1897.17  37.757  24.013
1897.67  37.757  24.013
1898.17  37.693  24.013
1898.67  37.757  23.982
1899.17  37.757  24.043
1899.67  37.757  23.951
1900.17  37.693  24.013
1900.67  37.757  24.043
1901.17  37.757  24.013
1901.67  37.757  23.982
1902.17  37.693  24.043
1902.67  37.757  23.982
1903.17  37.757  24.013
1903.67  37.821  23.982
1904.17  37.693  24.013
1904.67  37.757  23.982
1905.17  37.757  24.013
1905.67  37.757  23.982
1906.17  37.757  24.013
1906.67  37.757  24.013
1907.17  37.757  24.013
1907.67  37.693  24.013
1908.17  37.757  24.013
1908.67  37.757  24.013
1909.17  37.693  24.013
1909.67  37.757  24.013
1910.17  37.693  23.982
1910.67  37.757  24.013
1911.17  37.757  24.043
1911.67  37.629  24.043
1912.17  37.757  24.013
1912.67  37.757  23.951
1913.17  37.757  23.982
1913.67  37.693  24.013
1914.17  37.373  23.982
1914.67  36.989  23.982
1915.17  36.669  23.982
1915.67  36.413  24.013
1916.17  36.157  23.951
1916.67  35.901  24.013
1917.17  35.645  24.013
1917.67  35.453  23.982
1918.17  35.389  23.982
1918.67  35.581  23.982
1919.17  35.773  24.013
1919.67  35.773  23.982
1920.17  35.837  23.982
1920.67  35.965  23.982
1921.17  35.965  23.951
1921.67  35.965  23.982
1922.17  36.029  23.982
1922.67  36.093  23.982
1923.17  36.093  23.982
1923.67  36.093  24.043
1924.17  36.157  24.013
1924.67  36.157  23.982
1925.17  36.221  23.982
1925.67  36.349  23.982
1926.17  36.157  24.013
1926.67  36.221  23.982
1927.17  36.221  24.043
1927.67  36.285  23.920
1928.17  36.221  24.013
1928.67  36.221  23.982
1929.17  36.221  24.013
1929.67  36.157  23.982
1930.17  36.157  24.013
1930.67  36.157  24.013
1931.17  36.285  24.013
1931.67  36.221  24.043
1932.17  36.349  24.013
1932.67  36.349  24.013
1933.17  36.349  24.043
1933.67  36.349  23.982
1934.17  36.349  24.013
1934.67  36.349  24.013
1935.17  36.349  24.013
1935.67  36.349  23.982
1936.17  36.349  23.951
1936.67  36.221  23.982
1937.17  36.349  24.013
1937.67  36.349  24.043
1938.17  36.285  23.982
1938.67  36.285  23.951
1939.17  36.221  24.013
1939.67  36.221  24.013
1940.17  36.285  24.013
1940.67  36.285  24.043
1941.17  36.285  24.013
1941.67  36.221  24.013
1942.17  36.221  24.013
1942.67  36.093  24.013
1943.17  36.221  24.013
1943.67  36.285  23.982
1944.17  36.221  23.982
1944.67  36.285  24.043
1945.17  36.157  24.013
1945.67  36.221  24.013
1946.17  36.157  23.982
1946.67  36.157  24.013
1947.17  36.093  24.013
1947.67  36.157  24.013
1948.17  36.285  24.043
1948.67  36.221  24.013
1949.17  36.157  24.013
1949.67  36.221  24.013
1950.17  36.157  24.013
1950.67  36.285  23.982
1951.17  36.093  24.013
1951.67  36.221  24.013
1952.17  36.157  24.043
1952.67  36.157  23.951
1953.17  36.157  24.013
1953.67  36.157  24.013
1954.17  36.157  24.013
1954.67  36.157  23.982
1955.17  36.157  24.013
1955.67  36.093  24.013
1956.17  36.157  24.013
1956.67  36.157  24.013
1957.17  36.157  24.013
1957.67  36.157  24.043
1958.17  36.157  24.013
1958.67  36.157  24.013
1959.17  36.157  24.043
1959.67  36.157  24.043
1960.17  36.157  24.013
1960.67  36.157  24.013
1961.17  36.157  24.043
1961.67  36.157  24.013
1962.17  36.221  24.013
1962.67  36.157  23.982
1963.17  36.157  24.013
1963.67  36.157  24.043
1964.17  36.093  24.013
1964.67  36.029  24.013
1965.17  36.157  24.013
1965.67  36.157  24.043
1966.17  36.157  24.013
1966.67  36.157  23.982
1967.17  36.157  24.013
1967.67  36.157  24.013
1968.17  36.157  24.013
1968.67  36.157  23.982
1969.17  36.093  24.043
1969.67  36.221  24.013
1970.17  36.157  24.013
1970.67  36.221  24.013
1971.17  36.221  24.043
1971.67  36.157  23.982
1972.17  36.157  24.013
1972.67  36.157  24.043
1973.17  36.157  24.013
1973.67  36.093  24.013
1974.17  36.157  24.013
1974.67  36.157  24.013
1975.17  36.157  24.013
1975.67  36.157  24.043
1976.17  36.157  24.013
1976.67  36.157  24.013
1977.17  36.093  24.043
1977.67  36.093  24.013
1978.17  36.157  24.043
1978.67  36.157  24.043
1979.17  36.093  24.013
1979.67  36.093  24.013
1980.17  36.157  24.043
1980.67  36.157  24.013
1981.17  36.093  24.013
1981.67  36.093  24.013
1982.18  36.157  24.013
1982.68  36.157  24.013
1983.18  36.157  24.013
1983.68  36.093  24.013
1984.18  36.093  24.013
1984.68  36.093  24.043
1985.18  36.157  24.013
1985.68  36.157  24.013
1986.18  36.093  24.013
1986.68  36.157  23.982
1987.18  36.157  24.013
1987.68  36.093  24.013
1988.18  36.157  24.013
1988.68  36.157  24.013
1989.18  36.029  24.013
1989.68  36.157  24.043
1990.18  36.157  24.013
1990.68  36.093  24.043
1991.18  36.157  24.013
1991.68  36.157  24.013
1992.18  36.221  24.043
1992.68  36.221  24.043
1993.18  36.157  23.982
1993.68  36.093  24.013
1994.18  36.157  24.043
1994.68  36.157  24.043
1995.18  36.157  24.013
1995.68  36.093  24.013
1996.18  36.157  24.043
1996.68  36.221  24.043
1997.18  36.093  23.982
1997.68  36.157  24.013
1998.18  36.157  24.013
1998.68  36.157  24.043
1999.18  36.157  24.013
1999.68  36.157  24.013
2000.18  36.157  24.043
2000.68  36.157  24.043
2001.18  36.093  24.043
2001.68  36.221  24.043
2002.18  36.157  24.043
2002.68  36.157  24.013
2003.18  36.157  24.043
2003.68  36.093  24.043
2004.18  36.093  24.043
2004.68  36.093  24.013
2005.18  36.093  24.074
2005.68  36.157  24.043
2006.18  36.157  24.043
2006.68  36.093  23.982
2007.18  36.093  24.013
2007.68  36.157  24.074
2008.18  36.157  24.013
2008.68  36.093  24.013
2009.18  36.093  24.043
2009.68  36.157  23.982
2010.18  36.221  24.013
2010.68  36.093  24.013
2011.18  36.093  24.013
2011.68  36.093  24.013
2012.18  36.093  24.013
2012.68  36.221  23.982
2013.18  36.093  24.013
2013.68  36.157  24.013
2014.18  36.093  24.013
2014.68  36.157  24.013
2015.18  36.157  24.013
2015.68  36.093  24.043
2016.18  36.093  24.013
2016.68  36.157  24.013
2017.18  36.157  24.013
2017.68  36.093  24.013
2018.18  36.093  24.074
2018.68  36.157  24.013
2019.18  36.093  24.043
2019.68  36.157  24.043
2020.18  36.093  24.013
2020.68  36.157  24.013
2021.18  36.157  24.013
2021.68  36.157  24.013
2022.18  36.157  24.043
2022.68  36.157  24.013
2023.18  36.029  24.043
2023.68  36.221  24.043
2024.18  36.157  24.013
2024.68  36.157  24.043
2025.18  36.157  23.982
2025.68  36.221  24.013
2026.18  36.157  23.982
2026.68  36.221  24.043
2027.18  36.157  24.013
2027.68  36.093  24.043
2028.18  36.093  24.013
2028.68  36.157  24.043
2029.18  36.157  24.013
2029.68  36.093  24.043
2030.18  36.093  24.013
2030.68  36.157  24.013
2031.18  36.157  24.043
2031.68  36.157  24.043
2032.18  36.093  24.043
2032.68  36.157  24.043
2033.18  36.157  24.043
2033.68  36.157  24.043
2034.18  36.157  24.043
2034.68  36.157  24.013
2035.18  36.157  24.043
2035.68  36.157  24.043
2036.18  36.093  24.043
2036.68  36.157  23.982
2037.18  36.157  24.013
2037.68  36.093  24.043
2038.18  36.157  24.043
2038.68  36.157  24.013
2039.18  35.965  24.043
2039.68  36.093  24.013
2040.18  36.029  24.043
2040.68  36.157  24.043
2041.18  36.093  24.013
2041.68  36.157  24.074
2042.18  36.157  24.013
2042.68  36.157  24.013
2043.18  36.093  24.043
2043.68  36.157  24.013
2044.18  36.157  24.013
2044.68  36.221  24.013
2045.18  36.157  24.043
2045.68  36.157  24.013
2046.18  36.157  24.043
2046.68  36.157  24.013
2047.18  36.093  24.013
2047.68  36.157  24.013
2048.18  36.157  24.013
2048.68  36.157  24.013
2049.18  36.093  24.043
2049.68  36.157  24.043
2050.18  36.093  24.043
2050.68  36.157  24.013
2051.18  36.221  24.043
2051.68  36.157  24.043
2052.18  36.157  24.013
2052.68  36.093  24.043
2053.18  36.157  23.982
2053.68  36.093  24.013
2054.18  36.157  24.013
2054.68  36.157  24.043
2055.18  36.093  24.074
2055.68  36.221  24.043
2056.18  36.157  24.013
2056.68  36.157  24.043
2057.18  36.093  24.013
2057.68  36.157  24.043
2058.18  36.221  24.013
2058.68  36.157  24.043
2059.18  36.221  24.043
2059.68  36.157  23.951
2060.18  36.157  24.013
2060.68  36.157  24.043
2061.18  36.221  24.043
2061.68  36.157  24.074
2062.18  36.093  24.043
2062.68  36.157  24.043
2063.18  36.157  24.043
2063.68  36.285  24.013
2064.18  36.157  24.013
2064.68  36.157  24.105
2065.18  36.093  24.013
2065.68  36.157  24.074
2066.18  36.157  24.043
2066.68  36.093  24.013
2067.18  36.157  24.043
2067.68  36.157  24.074
2068.18  36.221  24.043
2068.68  36.093  24.043
2069.18  36.157  24.043
2069.68  36.157  24.013
2070.18  36.221  24.074
2070.68  36.221  24.013
2071.18  36.157  24.043
2071.68  36.157  24.013
2072.18  36.157  24.043
2072.68  36.157  24.043
2073.18  36.157  24.013
2073.68  36.157  24.043
2074.18  36.157  24.043
2074.68  36.157  24.043
2075.18  36.157  24.043
2075.68  36.221  24.043
2076.18  36.157  24.013
2076.68  36.157  23.982
2077.18  36.157  24.013
2077.68  36.093  23.982
2078.18  36.157  24.043
2078.68  36.221  24.013
2079.18  36.157  24.013
2079.68  36.093  24.013
2080.18  36.093  24.043
2080.68  36.157  24.074
2081.18  36.157  24.043
2081.68  36.093  24.043
2082.18  36.157  24.043
2082.68  36.157  24.013
2083.18  36.157  24.013
2083.68  36.221  24.074
2084.18  36.029  24.043
2084.68  36.221  24.043
2085.18  36.221  24.013
2085.68  36.157  24.043
2086.18  36.157  23.982
2086.68  36.093  24.043
2087.18  36.157  24.013
2087.68  36.093  24.013
2088.18  36.157  24.013
2088.68  36.157  24.013
2089.18  36.157  24.043
2089.68  36.157  24.043
2090.18  36.157  24.043
2090.68  36.221  24.013
2091.18  36.221  24.074
2091.68  36.221  24.043
2092.18  36.221  24.043
2092.68  36.093  24.074
2093.18  36.157  24.043
2093.68  36.157  24.043
2094.18  36.157  24.043
2094.68  36.157  24.043
2095.19  36.157  24.043
2095.69  36.285  24.043
2096.19  36.157  24.043
2096.69  36.093  24.074
2097.19  36.093  24.043
2097.69  36.221  24.013
2098.19  36.157  24.013
2098.69  36.157  24.013
2099.19  36.221  24.043
2099.69  36.157  24.074
2100.19  36.157  24.043
2100.69  36.157  24.043
2101.19  36.157  24.043
2101.69  36.221  24.043
2102.19  36.157  24.043
2102.69  36.157  24.043
2103.19  36.157  24.013
2103.69  36.221  24.074
2104.19  36.157  24.074
2104.69  36.093  24.043
2105.19  36.221  24.043
2105.69  36.157  24.043
2106.19  36.093  24.043
2106.69  36.157  24.043
2107.19  36.157  24.074
2107.69  36.221  24.043
2108.19  36.157  24.043
2108.69  36.285  24.043
2109.19  36.157  24.043
2109.69  36.221  24.043
2110.19  36.157  24.043
2110.69  36.157  24.043
2111.19  36.157  24.043
2111.69  36.221  24.043
2112.19  36.093  24.043
2112.69  36.157  24.074
2113.19  36.157  24.043
2113.69  36.093  24.043
2114.19  36.093  24.043
2114.69  36.221  24.043
2115.19  36.157  24.074
2115.69  36.157  24.013
2116.19  36.285  24.074
2116.69  36.221  24.043
2117.19  36.157  24.043
2117.69  36.157  24.043
2118.19  36.221  24.043
2118.69  36.221  24.043
2119.19  36.221  24.074
2119.69  36.221  24.043
2120.19  36.221  24.043
2120.69  36.157  24.013
2121.19  36.285  24.043
2121.69  36.093  24.074
2122.19  36.221  24.043
2122.69  36.157  24.013
2123.19  36.285  24.043
2123.69  36.157  24.043
2124.19  36.221  24.043
2124.69  36.221  24.013
2125.19  36.157  24.013
2125.69  36.157  24.043
2126.19  36.221  24.074
2126.69  36.157  24.013
2127.19  36.221  24.043
2127.69  36.221  24.013
2128.19  36.285  24.013
2128.69  36.221  24.074
2129.19  36.157  24.074
2129.69  36.221  24.105
2130.19  36.221  24.074
2130.69  36.221  24.074
2131.19  36.221  24.043
2131.69  36.221  24.043
2132.19  36.157  24.043
2132.69  36.157  24.043
2133.19  36.221  24.043
2133.69  36.285  24.043
2134.19  36.157  24.074
2134.69  36.157  24.043
2135.19  36.221  24.074
2135.69  36.157  24.043
2136.19  36.221  24.043
2136.69  36.221  24.043
2137.19  36.285  23.982
2137.69  36.157  24.043
2138.19  36.221  24.013
2138.69  36.221  24.043
2139.19  36.221  24.013
2139.69  36.157  24.043
2140.19  36.221  24.043
2140.69  36.221  24.074
2141.19  36.157  24.043
2141.69  36.157  24.043
2142.19  36.221  24.043
2142.69  36.157  24.043
2143.19  36.221  24.043
2143.69  36.221  24.074
2144.19  36.221  24.043
2144.69  36.157  24.074
2145.19  36.285  24.013
2145.69  36.285  24.074
2146.19  36.285  24.074
2146.69  36.157  24.074
2147.19  36.221  24.074
2147.69  36.157  24.074
2148.19  36.221  24.074
2148.69  36.221  24.043
2149.19  36.221  24.074
2149.69  36.221  24.043
2150.19  36.221  24.043
2150.69  36.221  24.043
2151.19  36.285  24.043
2151.69  36.221  24.043
2152.19  36.285  24.043
2152.69  36.221  24.043
2153.19  36.221  24.043
2153.69  36.221  24.074
2154.19  36.221  24.074
2154.69  36.221  24.043
2155.19  36.221  24.043
2155.69  36.221  24.013
2156.19  36.349  24.043
2156.69  36.029  24.013
2157.19  36.285  24.043
2157.69  36.221  24.074
2158.19  36.221  24.074
2158.69  36.285  24.074
2159.19  36.221  24.043
2159.69  36.221  24.043
2160.19  36.221  24.043
2160.69  36.349  24.074
2161.19  36.733  24.043
2161.69  36.925  24.043
2162.19  37.117  24.013
2162.69  37.437  24.043
2163.19  37.565  24.074
2163.69  37.757  24.043
2164.19  37.757  24.074
2164.69  37.757  24.013
2165.19  37.885  24.074
2165.69  38.013  24.043
2166.19  38.077  24.013
2166.69  38.141  24.013
2167.19  38.205  24.043
2167.69  38.205  24.043
2168.19  38.333  24.013
2168.69  38.333  24.043
2169.19  38.333  24.043
2169.69  38.397  24.105
2170.19  38.397  24.043
2170.69  38.397  24.074
2171.19  38.461  24.043
2171.69  38.525  24.074
2172.19  38.525  24.043
2172.69  38.525  24.043
2173.19  38.461  24.043
2173.69  38.461  24.043
2174.19  38.525  24.043
2174.69  38.525  24.074
2175.19  38.589  24.074
2175.69  38.525  24.043
2176.19  38.653  24.013
2176.69  38.589  24.013
2177.19  38.653  24.013
2177.69  38.653  24.013
2178.19  38.717  24.043
2178.69  38.717  24.043
2179.19  38.589  24.013
2179.69  38.589  24.043
2180.19  38.717  24.074
2180.69  38.717  24.043
2181.19  38.653  24.074
2181.69  38.781  24.043
2182.19  38.717  24.043
2182.69  38.717  24.043
2183.19  38.717  24.043
2183.69  38.717  24.043
2184.19  38.717  24.043
2184.69  38.781  24.043
2185.19  38.845  24.105
2185.69  38.781  24.074
2186.19  38.781  24.043
2186.69  38.781  24.043
2187.19  38.781  24.043
2187.69  38.781  24.043
2188.19  38.781  24.013
2188.69  38.781  24.074
2189.19  38.781  24.013
2189.69  38.781  24.043
2190.19  38.781  24.043
2190.69  38.845  24.013
2191.19  38.781  24.043
2191.69  38.845  24.043
2192.19  38.845  24.043
2192.69  38.845  24.043
2193.19  38.845  24.013
2193.69  38.909  24.043
2194.19  38.781  24.043
2194.69  38.909  24.043
2195.19  38.781  24.013
2195.69  38.909  24.043
2196.19  38.845  24.043
2196.69  38.845  24.043
2197.19  38.845  24.013
2197.70  38.909  23.982
2198.20  38.845  23.982
2198.70  38.909  24.043
2199.20  38.909  24.043
2199.70  38.845  24.043
2200.20  38.845  23.982
2200.70  38.909  24.013
2201.20  38.909  24.043
2201.70  38.845  24.043
2202.20  38.909  24.043
2202.70  38.909  24.043
2203.20  38.909  24.013
2203.70  38.909  24.043
2204.20  38.909  24.013
2204.70  38.973  24.043
2205.20  38.909  24.043
2205.70  38.845  24.043
2206.20  38.909  24.074
2206.70  38.909  24.043
2207.20  38.973  24.043
2207.70  38.909  24.074
2208.20  38.909  24.043
2208.70  38.909  24.013
2209.20  38.909  24.043
2209.70  38.973  24.013
2210.20  38.973  24.043
2210.70  38.973  24.043
2211.20  38.973  24.013
2211.70  38.909  24.043
2212.20  38.973  24.074
2212.70  39.037  24.043
2213.20  38.973  24.043
2213.70  38.973  24.013
2214.20  38.973  24.043
2214.70  39.037  24.013
2215.20  38.973  24.013
2215.70  38.909  24.043
2216.20  38.973  24.043
2216.70  38.909  24.043
2217.20  38.909  24.043
2217.70  38.909  24.043
2218.20  38.973  24.043
2218.70  38.909  24.043
2219.20  38.973  24.043
2219.70  38.909  24.043
2220.20  38.973  24.043
2220.70  38.973  24.043
2221.20  39.037  24.043
2221.70  38.973  24.043
2222.20  38.973  24.074
2222.70  38.973  24.013
2223.20  39.037  24.043
2223.70  38.909  24.043
2224.20  38.973  24.043
2224.70  39.037  24.013
2225.20  38.973  24.043
2225.70  38.973  24.043
2226.20  38.973  24.043
2226.70  39.037  24.074
2227.20  38.909  24.043
2227.70  39.229  24.013
2228.20  39.037  24.074
2228.70  39.037  24.043
2229.20  38.973  24.043
2229.70  38.973  24.013
2230.20  39.101  24.013
2230.70  39.037  24.013
2231.20  39.037  24.043
2231.70  38.973  24.013
2232.20  39.037  24.074
2232.70  39.037  24.013
2233.20  39.101  24.043
2233.70  39.037  24.043
2234.20  39.037  24.074
2234.70  38.973  24.043
2235.20  39.037  24.043
2235.70  39.101  24.013
2236.20  39.037  24.074
2236.70  39.037  24.043
2237.20  39.037  24.013
2237.70  39.037  24.043
2238.20  39.037  24.043
2238.70  38.909  24.013
2239.20  39.101  24.043
2239.70  38.973  24.074
2240.20  39.101  24.043
2240.70  39.037  24.043
2241.20  39.101  24.043
2241.70  39.037  24.074
2242.20  39.101  24.013
2242.70  39.037  24.074
2243.20  39.101  24.043
2243.70  39.037  24.074
2244.20  38.973  24.043
2244.70  39.037  24.043
2245.20  39.037  24.043
2245.70  39.101  24.043
2246.20  39.037  24.043
2246.70  38.973  24.043
2247.20  39.101  24.043
2247.70  39.101  24.043
2248.20  39.101  24.043
2248.70  39.101  24.043
2249.20  39.101  24.043
2249.70  39.101  24.043
2250.20  39.037  24.074
2250.70  39.037  24.043
2251.20  39.101  24.074
2251.70  39.101  24.043
2252.20  39.165  24.013
2252.70  39.101  24.074
2253.20  39.101  24.043
2253.70  39.101  24.043
2254.20  39.101  24.013
2254.70  39.165  24.074
2255.20  39.165  24.043
2255.70  39.101  24.043
2256.20  39.101  24.013
2256.70  39.101  24.043
2257.20  39.101  24.043
2257.70  39.165  24.074
2258.20  39.101  24.043
2258.70  39.165  24.043
2259.20  39.101  24.043
2259.70  39.101  24.074
2260.20  39.165  24.013
2260.70  39.101  24.043
2261.20  39.101  24.013
2261.70  39.101  24.043
2262.20  39.101  24.043
2262.70  39.165  24.105
2263.20  39.101  24.074
2263.70  39.037  24.043
2264.20  39.101  24.043
2264.70  39.165  24.074
2265.20  39.101  24.074
2265.70  39.101  24.043
2266.20  39.165  24.043
2266.70  39.101  24.043
2267.20  39.037  24.043
2267.70  39.165  24.013
2268.20  39.165  24.043
2268.70  39.037  24.105
2269.20  39.165  24.074
2269.70  39.101  24.074
2270.20  39.229  24.074
2270.70  39.165  24.013
2271.20  39.101  24.043
2271.70  39.101  24.105
2272.20  39.101  24.043
2272.70  39.165  24.074
2273.20  39.165  24.074
2273.70  39.165  24.074
2274.20  39.165  24.043
2274.70  39.101  24.074
2275.20  39.101  24.043
2275.70  39.101  24.043
2276.20  39.165  24.074
2276.70  39.101  24.074
2277.20  39.101  24.043
2277.70  39.101  24.074
2278.20  39.229  24.043
2278.70  39.229  24.074
2279.20  39.165  24.043
2279.70  39.165  24.043
2280.20  39.165  24.043
2280.70  39.165  24.043
2281.20  39.165  24.043
2281.70  39.101  24.074
2282.20  39.165  24.074
2282.70  39.229  24.043
2283.20  39.165  24.074
2283.70  39.165  24.043
2284.20  39.229  24.043
2284.70  39.165  24.105
2285.20  39.101  24.074
2285.70  39.101  24.074
2286.20  39.101  24.043
2286.70  39.229  24.043
2287.20  39.101  24.074
2287.70  39.165  24.043
2288.20  39.165  24.043
2288.70  39.165  24.043
2289.20  39.229  24.043
2289.70  39.165  24.043
2290.20  39.165  24.043
2290.70  39.165  24.105
2291.20  39.101  24.043
2291.70  39.165  24.074
2292.20  39.101  24.043
2292.70  39.165  24.013
2293.20  39.037  24.074
2293.70  39.165  24.043
2294.20  39.165  24.043
2294.70  39.229  24.043
2295.20  39.165  24.074
2295.70  39.229  24.043
2296.20  39.165  24.043
2296.70  39.165  24.043
2297.20  39.165  24.043
2297.70  39.165  24.074
2298.20  39.165  24.074
2298.70  39.165  24.043
2299.20  39.165  24.043
2299.70  39.165  24.074
2300.20  39.229  24.074
2300.70  39.293  24.074
2301.20  39.229  24.074
2301.70  39.165  24.043
2302.20  39.229  24.074
2302.70  39.165  24.074
2303.20  39.101  24.074
2303.70  39.229  24.074
2304.20  39.293  24.013
2304.70  39.229  24.074
2305.20  39.229  24.074
2305.70  39.229  24.043
2306.20  39.165  24.105
2306.70  39.229  24.074
2307.20  39.165  24.043
2307.70  39.165  24.043
2308.20  39.165  24.043
2308.70  39.229  24.105
2309.20  39.165  24.074
2309.70  39.229  24.074
2310.20  39.165  24.074
2310.70  39.229  24.043
2311.20  39.229  24.074
2311.70  39.229  24.074
2312.20  39.165  24.043
2312.70  39.229  24.074
2313.20  39.229  24.074
2313.70  39.165  24.074
2314.20  39.165  24.074
2314.70  39.229  24.074
2315.20  39.229  24.074
2315.70  39.229  24.074
2316.20  39.165  24.074
2316.70  39.165  24.074
2317.20  39.229  24.074
2317.70  39.357  24.074
2318.20  39.165  24.043
2318.70  39.229  24.074
2319.20  39.229  24.105
2319.70  39.229  24.043
2320.20  39.229  24.074
2320.70  39.229  24.074
2321.20  39.165  24.013
2321.71  39.165  24.074
2322.21  39.229  24.074
2322.71  39.229  24.074
2323.21  39.229  24.074
2323.71  39.357  24.074
2324.21  39.229  24.043
2324.71  39.229  24.074
2325.21  39.165  24.074
2325.71  39.229  24.074
2326.21  39.165  24.043
2326.71  39.293  24.074
2327.21  39.229  24.074
2327.71  39.293  24.043
2328.21  39.229  24.074
2328.71  39.229  24.074
2329.21  39.229  24.074
2329.71  39.165  24.074
2330.21  39.229  24.043
2330.71  39.165  24.043
2331.21  39.229  24.074
2331.71  39.229  23.982
2332.21  39.293  24.105
2332.71  39.229  24.074
2333.21  39.293  24.105
2333.71  39.165  24.074
2334.21  39.229  24.074
2334.71  39.229  24.074
2335.21  39.229  24.074
2335.71  39.165  24.043
2336.21  39.229  24.074
2336.71  39.293  24.074
2337.21  39.293  24.074
2337.71  39.229  24.105
2338.21  39.229  24.043
2338.71  39.101  24.074
2339.21  39.165  24.105
2339.71  39.229  24.074
2340.21  39.229  24.043
2340.71  39.229  24.167
2341.21  39.613  24.043
2341.71  39.229  24.074
2342.21  39.165  24.074
2342.71  39.229  24.043
2343.21  39.229  24.043
2343.71  39.293  24.074
2344.21  39.165  24.105
2344.71  39.357  24.074
2345.21  39.165  24.074
2345.71  39.293  24.074
2346.21  39.229  24.074
2346.71  39.293  24.074
2347.21  39.165  24.074
2347.71  39.229  24.105
2348.21  39.229  24.074
2348.71  39.293  24.043
2349.21  39.229  24.074
2349.71  39.293  24.074
2350.21  39.229  24.074
2350.71  39.357  24.074
2351.21  39.293  24.074
2351.71  39.229  24.074
2352.21  39.229  24.043
2352.71  39.229  24.105
2353.21  39.293  24.043
2353.71  39.229  24.074
2354.21  39.293  24.043
2354.71  39.229  24.074
2355.21  39.229  24.074
2355.71  39.293  24.074
2356.21  39.229  24.074
2356.71  39.229  24.136
2357.21  39.229  24.074
2357.71  39.229  24.074
2358.21  39.293  24.105
2358.71  39.229  24.105
2359.21  39.293  24.105
2359.71  39.229  24.043
2360.21  39.229  24.105
2360.71  39.229  24.074
2361.21  39.229  24.074
2361.71  39.293  24.105
2362.21  39.293  24.074
2362.71  39.229  24.074
2363.21  39.229  24.074
2363.71  39.229  24.074
2364.21  39.229  24.136
2364.71  39.293  24.074
2365.21  39.293  24.043
2365.71  39.165  24.043
2366.21  39.293  24.074
2366.71  39.293  24.074
2367.21  39.229  24.074
2367.71  39.229  24.043
2368.21  39.229  24.105
2368.71  39.229  24.074
2369.21  39.229  24.043
2369.71  39.293  24.105
2370.21  39.293  24.074
2370.71  39.229  24.105
2371.21  39.229  24.074
2371.71  39.293  24.074
2372.21  39.229  24.074
2372.71  39.165  24.074
2373.21  39.229  24.074
2373.71  39.165  24.074
2374.21  39.229  24.074
2374.71  39.229  24.043
2375.21  39.229  24.074
2375.71  39.229  24.043
2376.21  39.229  24.074
2376.71  39.293  24.074
2377.21  39.229  24.074
2377.71  39.229  24.043
2378.21  39.293  24.105
2378.71  39.229  24.074
2379.21  39.229  24.105
2379.71  39.229  24.074
2380.21  39.229  24.074
2380.71  39.293  24.074
2381.21  39.229  24.074
2381.71  39.229  24.105
2382.21  39.293  24.043
2382.71  39.293  24.074
2383.21  39.293  24.136
2383.71  39.229  24.105
2384.21  39.229  24.074
2384.71  39.293  24.074
2385.21  39.293  24.105
2385.71  39.293  24.074
2386.21  39.229  24.074
2386.71  39.293  24.074
2387.21  39.229  24.074
2387.71  39.229  24.074
2388.21  39.293  24.105
2388.71  39.293  24.105
2389.21  39.229  24.105
2389.71  39.293  24.105
2390.21  39.357  24.105
2390.71  39.293  24.105
2391.21  39.229  24.074
2391.71  39.229  24.105
2392.21  39.293  24.074
2392.71  39.293  24.043
2393.21  39.293  24.105
2393.71  39.293  24.074
2394.21  39.293  24.074
2394.71  39.229  24.105
2395.21  39.229  24.105
2395.71  39.293  24.105
2396.21  39.165  24.105
2396.71  39.229  24.105
2397.21  39.293  24.105
2397.71  39.293  24.105
2398.21  39.293  24.074
2398.71  39.229  24.136
2399.21  39.293  24.136
2399.71  39.229  24.074
2400.21  39.293  24.105
2400.71  39.229  24.105
2401.21  39.229  24.074
2401.71  39.293  24.074
2402.21  39.293  24.105
2402.71  39.293  24.105
2403.21  39.293  24.074
2403.71  39.293  24.074
2404.21  39.229  24.105
2404.71  39.229  24.074
2405.21  39.293  24.105
2405.71  39.229  24.074
2406.21  39.229  24.074
2406.71  39.293  24.074
2407.21  39.229  24.074
2407.71  39.229  24.105
2408.21  39.293  24.074
2408.71  39.229  24.105
2409.21  39.293  24.043
2409.71  39.229  24.105
2410.21  39.229  24.105
2410.71  39.229  24.105
2411.21  39.229  24.105
2411.71  39.293  24.043
2412.21  39.293  24.105
2412.71  39.293  24.105
2413.21  39.229  24.074
2413.71  39.229  24.074
2414.21  39.293  24.136
2414.71  39.293  24.136
2415.21  39.293  24.074
2415.71  39.293  24.074
2416.21  39.293  24.105
2416.71  39.293  24.105
2417.21  39.293  24.074
2417.71  39.293  24.074
2418.21  39.293  24.105
2418.71  39.293  24.074
2419.21  39.293  24.074
2419.71  39.293  24.074
2420.21  39.293  24.136
2420.71  39.229  24.074
2421.21  39.293  24.074
2421.71  39.293  24.074
2422.21  39.293  24.136
2422.71  39.229  24.074
2423.21  39.357  24.167
2423.72  39.293  24.105
2424.22  39.293  24.074
2424.72  39.293  24.074
2425.22  39.229  24.105
2425.72  39.293  24.105
2426.22  39.293  24.105
2426.72  39.293  24.105
2427.22  39.293  24.105
2427.72  39.357  24.105
2428.22  39.293  24.136
2428.72  39.229  24.074
2429.22  39.357  24.105
2429.72  39.229  24.105
2430.22  39.293  24.105
2430.72  39.293  24.074
2431.22  39.293  24.105
2431.72  39.293  24.074
2432.22  39.229  24.105
2432.72  39.293  24.074
2433.22  39.293  24.105
2433.72  39.293  24.074
2434.22  39.293  24.074
2434.72  39.293  24.105
2435.22  39.293  24.105
2435.72  39.293  24.074
2436.22  39.293  24.136
2436.72  39.293  24.105
2437.22  39.293  24.105
2437.72  39.293  24.074
2438.22  39.293  24.105
2438.72  39.293  24.074
2439.22  39.293  24.105
2439.72  39.293  24.105
2440.22  39.293  24.074
2440.72  39.357  24.074
2441.22  39.229  24.074
2441.72  39.293  24.136
2442.22  39.293  24.136
2442.72  39.293  24.105
2443.22  39.229  24.136
2443.72  39.357  24.105
2444.22  39.293  24.074
2444.72  39.293  24.074
2445.22  39.357  24.105
2445.72  39.293  24.105
2446.22  39.293  24.105
2446.72  39.357  24.074
2447.22  39.293  24.105
2447.72  39.293  24.105
2448.22  39.293  24.074
2448.72  39.293  24.105
2449.22  39.293  24.105
2449.72  39.229  24.013
2450.22  39.229  24.105
2450.72  39.293  24.105
2451.22  39.229  24.105
2451.72  39.293  24.074
2452.22  39.293  24.074
2452.72  39.229  24.074
2453.22  39.293  24.105
2453.72  39.293  24.105
2454.22  39.293  24.105
2454.72  39.357  24.136
2455.22  39.229  24.013
2455.72  39.229  24.105
2456.22  39.293  24.105
2456.72  39.357  24.074
2457.22  39.293  24.105
2457.72  39.293  24.105
2458.22  39.293  24.136
2458.72  39.293  24.074
2459.22  39.293  24.105
2459.72  39.293  24.105
2460.22  39.293  24.136
2460.72  39.293  24.136
2461.22  39.229  24.136
2461.72  39.293  24.074
2462.22  39.293  24.136
2462.72  39.357  24.105
2463.22  39.357  24.136
2463.72  39.293  24.105
2464.22  39.293  24.136
2464.72  39.357  24.074
2465.22  39.293  24.105
2465.72  39.293  24.105
2466.22  39.357  24.105
2466.72  39.293  24.105
2467.22  39.293  24.074
2467.72  39.293  24.074
2468.22  39.293  24.074
2468.72  39.293  24.105
2469.22  39.229  24.136
2469.72  39.293  24.105
2470.22  39.293  24.105
2470.72  39.421  24.105
2471.22  39.293  24.167
2471.72  39.357  24.105
2472.22  39.357  24.136
2472.72  39.293  24.105
2473.22  39.293  24.105
2473.72  39.293  24.074
2474.22  39.229  24.105
2474.72  39.357  24.074
2475.22  39.293  24.105
2475.72  39.357  24.074
2476.22  39.293  24.105
2476.72  39.293  24.105
2477.22  39.293  24.105
2477.72  39.293  24.074
2478.22  39.229  24.074
2478.72  39.293  24.136
2479.22  39.357  24.074
2479.72  39.357  24.105
2480.22  39.293  24.105
2480.72  39.293  24.043
2481.22  39.357  24.105
2481.72  39.293  24.105
2482.22  39.293  24.105
2482.72  39.293  24.074
2483.22  39.293  24.105
2483.72  39.357  24.043
2484.22  39.357  24.105
2484.72  39.357  24.105
2485.22  39.293  24.074
2485.72  39.293  24.136
2486.22  39.229  24.136
2486.72  39.293  24.105
2487.22  39.293  24.136
2487.72  39.293  24.105
2488.22  39.293  24.136
2488.72  39.293  24.074
2489.22  39.293  24.105
2489.72  39.293  24.074
2490.22  39.293  24.136
2490.72  39.229  24.136
2491.22  39.357  24.136
2491.72  39.293  24.136
2492.22  39.357  24.074
2492.72  39.293  24.105
2493.22  39.293  24.136
2493.72  39.293  24.105
2494.22  39.229  24.105
2494.72  39.293  24.105
2495.22  39.357  24.074
2495.72  39.357  24.105
2496.22  39.293  24.105
2496.72  39.357  24.105
2497.22  39.357  24.105
2497.72  39.293  24.074
2498.22  39.293  24.074
2498.72  39.357  24.105
2499.22  39.293  24.105
2499.72  39.293  24.105
2500.22  39.293  24.105
2500.72  39.293  24.136
2501.22  39.357  24.105
2501.72  39.293  24.105
