   2.00  24.322  27.772
   2.50  24.322  27.772
   3.00  24.322  27.772
   3.50  24.322  27.772
   8.12  24.322  27.772
   8.62  24.296  27.586
   9.12  24.296  27.586
   9.62  24.322  27.772
  10.12  24.322  27.586
  10.62  24.322  27.772
  11.12  24.322  27.586
  11.62  24.322  27.586
  12.12  24.322  27.586
  12.62  24.296  27.586
  13.12  24.296  27.401
  13.62  24.322  27.586
  14.12  24.322  27.772
  14.62  24.322  27.401
  15.12  24.348  27.401
  15.62  24.322  27.401
  16.12  24.427  27.401
  16.62  24.479  27.586
  17.12  24.479  27.401
  17.62  24.531  27.586
  18.12  24.557  27.586
  18.62  24.557  27.586
  19.12  24.583  27.586
  19.62  24.557  27.586
  20.12  24.531  27.586
  20.62  24.505  27.215
  21.12  24.505  27.401
  21.62  24.479  27.586
  22.12  24.505  27.401
  22.62  24.479  27.401
  23.12  24.505  27.215
  23.62  24.531  27.401
  24.12  24.557  27.586
  24.62  24.610  27.401
  25.12  24.636  27.586
  25.62  24.714  27.215
  26.12  24.688  27.401
  26.62  24.714  27.401
  27.12  24.740  27.586
  27.62  24.766  27.401
  28.12  24.792  27.401
  28.62  24.819  27.586
  29.12  24.819  27.401
  29.62  24.845  27.401
  30.12  24.819  27.586
  30.62  24.819  27.586
  31.12  24.845  27.401
  31.62  24.845  27.401
  32.12  24.845  27.401
  32.62  24.845  27.586
  33.12  24.845  27.401
  33.62  24.845  27.586
  34.12  24.845  27.586
  34.62  24.845  27.772
  35.12  24.897  27.215
  35.62  24.871  27.401
  36.12  24.871  27.772
  36.62  24.923  27.586
  37.12  24.897  27.215
  37.62  24.897  27.401
  38.12  24.923  27.401
  38.62  24.949  27.401
  39.12  24.949  27.401
  39.62  24.975  27.401
  40.12  25.005  27.401
  40.62  25.005  27.401
  41.12  25.005  27.401
  41.62  25.114  27.401
  42.12  25.222  27.586
  42.62  25.114  27.401
  43.12  25.222  27.401
  43.62  25.222  27.401
  44.12  25.222  27.401
  44.62  25.330  27.401
  45.12  25.330  27.401
  45.62  25.438  27.586
  46.12  25.655  27.401
  46.62  25.763  27.401
  47.12  25.655  27.772
  47.62  25.763  27.215
  48.12  25.655  27.586
  48.62  25.980  27.401
  49.12  25.980  27.215
  49.63  25.980  27.401
  50.13  26.088  27.215
  50.63  25.980  27.401
  51.13  26.196  27.215
  51.63  26.413  27.401
  52.13  26.196  27.401
  52.63  26.413  27.401
  53.13  26.304  27.401
  53.63  26.521  27.586
  54.13  26.413  27.215
  54.63  26.521  27.401
  55.13  26.629  27.401
  55.63  26.737  27.215
  56.13  26.737  27.401
  56.63  26.737  27.401
  57.13  26.846  27.215
  57.63  27.062  27.215
  58.13  26.954  27.401
  58.63  27.279  27.215
  59.13  27.062  27.401
  59.63  27.170  27.401
  60.13  26.954  27.215
  60.63  27.170  27.215
  61.13  27.279  27.215
  61.63  27.279  27.401
  62.13  27.387  27.401
  62.63  27.495  27.215
  63.13  27.495  27.030
  63.63  27.603  27.215
  64.13  27.495  27.215
  64.63  27.495  27.401
  65.13  27.603  26.845
  65.63  27.820  27.030
  66.13  27.820  27.215
  66.63  27.603  27.030
  67.13  27.820  27.215
  67.63  27.820  27.215
  68.13  27.928  26.845
  68.63  28.036  27.030
  69.13  27.928  27.215
  69.63  28.036  27.215
  70.13  27.928  27.030
  70.63  28.036  27.215
  71.13  28.145  27.215
  71.63  28.036  27.215
  72.13  28.253  27.215
  72.63  28.469  27.030
  73.13  28.145  27.215
  73.63  28.469  27.030
  74.13  28.361  27.030
  74.63  28.469  27.030
  75.13  28.361  27.030
  75.63  28.469  27.030
  76.13  28.578  27.030
  76.63  28.578  27.030
  77.13  28.578  27.215
  77.63  28.686  27.401
  78.13  28.794  27.030
  78.63  28.902  27.030
  79.13  28.902  27.215
  79.63  28.902  27.215
  80.13  28.902  27.215
  80.63  29.011  27.030
  81.13  29.011  27.030
  81.63  29.011  27.215
  82.13  28.902  27.215
  82.63  29.011  27.215
  83.13  29.119  27.030
  83.63  29.119  27.030
  84.13  29.227  27.215
  84.63  29.227  27.030
  85.13  29.335  26.845
  85.63  29.227  26.845
  86.13  29.335  26.845
  86.63  29.444  27.215
  87.13  29.335  27.030
  87.63  29.335  27.030
  88.13  29.444  26.845
  88.63  29.444  26.845
  89.13  29.444  26.845
  89.63  29.552  26.845
  90.13  29.877  26.845
  90.63  29.552  26.845
  91.13  29.552  26.474
  91.63  29.660  26.845
  92.13  29.768  26.845
  92.63  29.660  26.845
  93.13  29.768  26.845
  93.63  29.768  26.845
  94.13  29.768  26.845
  94.63  29.768  26.845
  95.13  29.877  26.845
  95.63  29.768  26.845
  96.13  29.985  26.845
  96.63  29.877  26.845
  97.13  29.877  26.845
  97.63  29.877  27.030
  98.13  29.985  27.030
  98.63  29.768  26.845
  99.13  30.101  26.845
  99.63  30.101  26.845
 100.13  30.101  26.845
 100.63  30.101  26.845
 101.13  30.217  26.845
 101.63  30.217  26.845
 102.13  30.217  26.659
 102.63  30.217  26.845
 103.13  30.334  26.659
 103.63  30.217  26.845
 104.13  30.334  26.659
 104.63  30.451  26.845
 105.13  30.451  26.845
 105.63  30.568  26.659
 106.13  30.451  26.845
 106.63  30.334  26.659
 107.13  30.568  26.474
 107.63  30.451  26.474
 108.13  30.451  26.845
 108.63  30.568  26.845
 109.13  30.568  26.659
 109.63  30.802  26.659
 110.13  30.568  26.659
 110.63  30.685  26.659
 111.13  30.802  26.659
 111.63  30.685  26.659
 112.13  30.802  26.659
 112.63  30.802  26.659
 113.13  30.802  26.659
 113.63  30.919  26.474
 114.13  30.919  26.474
 114.63  30.919  26.474
 115.13  30.919  26.845
 115.63  30.919  26.659
 116.13  31.036  26.659
 116.63  31.269  26.659
 117.13  31.036  26.474
 117.63  31.152  26.474
 118.13  31.152  26.845
 118.63  31.152  26.659
 119.13  31.386  26.659
 119.63  31.036  26.659
 120.13  31.152  26.659
 120.63  31.269  26.659
 121.13  31.152  26.474
 121.63  31.152  26.474
 122.13  31.036  26.474
 122.63  31.152  26.474
 123.13  31.386  26.659
 123.63  31.269  26.474
 124.13  31.386  26.845
 124.63  31.269  26.659
 125.13  31.386  26.474
 125.63  31.152  26.845
 126.13  31.386  26.659
 126.63  31.503  26.474
 127.13  31.386  26.474
 127.63  31.269  26.659
 128.13  31.386  26.474
 128.63  31.503  26.659
 129.13  31.503  26.474
 129.63  31.620  26.659
 130.13  31.503  26.474
 130.63  31.620  26.474
 131.13  31.503  26.474
 131.63  31.620  26.474
 132.13  31.737  26.474
 132.63  31.503  26.474
 133.13  31.737  26.659
 133.63  31.737  26.474
 134.13  31.737  26.474
 134.63  31.737  26.288
 135.13  31.854  26.474
 135.63  31.854  26.474
 136.13  31.620  26.103
 136.63  31.737  26.288
 137.13  31.854  26.474
 137.63  31.854  26.288
 138.13  31.971  26.474
 138.63  31.854  26.659
 139.13  32.087  26.659
 139.63  31.971  26.474
 140.13  31.971  26.659
 140.63  31.971  26.474
 141.13  31.971  26.659
 141.63  31.971  26.474
 142.13  32.087  26.288
 142.63  31.971  26.288
 143.13  31.971  26.288
 143.63  32.087  26.288
 144.13  31.971  26.474
 144.63  32.087  26.288
 145.13  32.204  26.288
 145.63  32.204  26.474
 146.13  32.204  26.288
 146.63  32.087  26.288
 147.13  31.971  26.659
 147.63  32.087  26.474
 148.13  32.204  26.474
 148.63  32.204  26.474
 149.13  32.438  26.474
 149.63  32.204  26.288
 150.13  32.321  26.103
 150.63  32.321  26.288
 151.13  32.204  26.288
 151.63  32.204  26.288
 152.13  32.321  26.288
 152.63  32.321  26.288
 153.13  32.555  26.288
 153.63  32.438  26.288
 154.13  32.321  26.288
 154.63  32.438  26.288
 155.13  32.321  26.288
 155.63  32.672  26.103
 156.13  32.438  26.288
 156.63  32.438  26.103
 157.13  32.555  26.288
 157.63  32.672  26.474
 158.13  32.555  26.288
 158.63  32.438  26.288
 159.13  32.555  26.288
 159.63  32.555  26.288
 160.13  32.672  26.288
 160.63  32.555  26.103
 161.13  32.555  26.474
 161.63  32.672  26.103
 162.13  32.438  26.103
 162.64  32.672  26.103
 163.14  32.555  26.288
 163.64  32.789  26.103
 164.14  32.789  26.103
 164.64  32.672  26.103
 165.14  32.672  26.103
 165.64  32.672  25.362
 166.14  32.672  26.103
 166.64  32.789  26.288
 167.14  32.672  26.103
 167.64  32.789  26.288
 168.14  32.789  26.474
 168.64  32.789  26.103
 169.14  32.789  26.474
 169.64  32.789  26.103
 170.14  32.789  26.288
 170.64  32.789  25.918
 171.14  32.906  26.103
 171.64  32.906  25.918
 172.14  32.672  26.103
 172.64  33.022  26.103
 173.14  33.022  26.103
 173.64  32.906  25.918
 174.14  33.022  25.918
 174.64  32.789  26.103
 175.14  33.022  26.103
 175.64  33.022  26.103
 176.14  32.906  26.103
 176.64  33.022  25.918
 177.14  33.022  26.103
 177.64  33.022  26.103
 178.14  33.022  26.103
 178.64  33.022  25.918
 179.14  33.139  26.103
 179.64  33.139  26.103
 180.14  33.139  26.103
 180.64  33.139  25.918
 181.14  33.256  26.103
 181.64  33.139  26.103
 182.14  33.139  26.103
 182.64  33.256  26.103
 183.14  33.139  25.918
 183.64  33.139  25.918
 184.14  33.256  26.288
 184.64  33.139  26.103
 185.14  33.256  26.103
 185.64  33.139  25.918
 186.14  33.373  26.103
 186.64  33.373  25.918
 187.14  33.256  26.103
 187.64  33.373  26.103
 188.14  33.373  25.918
 188.64  33.373  26.103
 189.14  33.373  26.103
 189.64  33.490  25.918
 190.14  33.373  25.918
 190.64  33.490  25.918
 191.14  33.490  25.918
 191.64  33.490  25.918
 192.14  33.490  25.918
 192.64  33.490  26.103
 193.14  33.490  26.103
 193.64  33.490  25.918
 194.14  33.373  26.103
 194.64  33.607  25.918
 195.14  33.607  26.103
 195.64  33.490  26.103
 196.14  33.607  25.918
 196.64  33.490  26.103
 197.14  33.607  25.918
 197.64  33.724  25.918
 198.14  33.373  26.103
 198.64  33.841  25.732
 199.14  33.607  26.103
 199.64  33.607  26.103
 200.14  33.607  25.918
 200.64  33.724  25.918
 201.14  33.724  26.103
 201.64  33.724  25.918
 202.14  33.607  25.918
 202.64  33.607  25.732
 203.14  33.724  25.732
 203.64  33.841  25.732
 204.14  33.724  25.732
 204.64  33.724  25.918
 205.14  33.724  26.103
 205.64  33.841  25.732
 206.14  33.724  25.918
 206.64  33.841  25.918
 207.14  33.841  25.732
 207.64  33.841  25.918
 208.14  33.724  25.918
 208.64  34.074  25.918
 209.14  33.841  25.918
 209.64  33.841  25.732
 210.14  33.841  25.918
 210.64  33.841  25.732
 211.14  33.841  25.918
 211.64  33.724  25.918
 212.14  33.841  25.918
 212.64  33.957  25.732
 213.14  33.841  25.547
 213.64  33.841  25.732
 214.14  33.957  25.918
 214.64  33.957  25.732
 215.14  33.957  25.918
 215.64  33.957  25.732
 216.14  33.957  25.732
 216.64  34.074  25.918
 217.14  33.957  25.732
 217.64  33.957  26.103
 218.14  33.957  25.732
 218.64  34.074  25.732
 219.14  33.957  25.918
 219.64  33.957  25.918
 220.14  33.957  25.732
 220.64  34.074  25.547
 221.14  34.074  25.732
 221.64  34.074  25.732
 222.14  33.957  25.918
 222.64  34.191  25.918
 223.14  34.074  26.103
 223.64  34.191  25.732
 224.14  34.074  25.732
 224.64  34.074  25.547
 225.14  34.191  25.918
 225.64  33.957  25.547
 226.14  34.191  25.732
 226.64  34.191  25.732
 227.14  34.191  25.732
 227.64  34.191  25.732
 228.14  34.191  26.103
 228.64  34.191  25.918
 229.14  34.191  25.732
 229.64  34.191  25.547
 230.14  34.425  25.732
 230.64  34.308  25.547
 231.14  34.191  25.732
 231.64  34.425  25.918
 232.14  34.308  25.732
 232.64  34.425  25.732
 233.14  34.308  25.547
 233.64  34.191  25.547
 234.14  34.308  25.732
 234.64  34.308  25.918
 235.14  34.308  25.362
 235.64  34.425  25.732
 236.14  34.308  25.918
 236.64  34.191  25.547
 237.14  34.308  25.547
 237.64  34.308  25.732
 238.14  34.425  25.732
 238.64  34.308  25.547
 239.14  34.308  25.732
 239.64  34.191  25.362
 240.14  34.425  25.362
 240.64  34.425  25.547
 241.14  34.308  25.732
 241.64  34.425  25.732
 242.14  34.425  25.547
 242.64  34.425  25.547
 243.14  34.425  25.547
 243.64  34.425  25.732
 244.14  34.425  25.547
 244.64  34.425  25.732
 245.14  34.542  25.547
 245.64  34.542  25.547
 246.14  34.308  25.547
 246.64  34.659  25.732
 247.14  34.542  25.547
 247.64  34.542  25.547
 248.14  34.542  25.362
 248.64  34.542  25.547
 249.14  34.659  25.732
 249.64  34.542  25.547
 250.14  34.425  25.547
 250.64  34.659  25.547
 251.14  34.425  25.362
 251.64  34.659  25.547
 252.14  34.542  25.547
 252.64  34.659  25.547
 253.14  34.542  25.176
 253.64  34.542  25.362
 254.14  34.659  25.362
 254.64  34.542  25.732
 255.14  34.776  25.362
 255.64  34.659  25.547
 256.14  34.659  25.547
 256.64  34.659  25.362
 257.14  34.776  25.362
 257.64  34.776  25.547
 258.14  34.659  25.547
 258.64  34.776  25.547
 259.14  34.776  25.547
 259.64  34.776  25.362
 260.14  34.776  25.362
 260.64  34.659  25.547
 261.14  34.659  25.362
 261.64  34.659  25.547
 262.14  34.776  25.362
 262.64  34.776  25.547
 263.14  34.659  25.547
 263.64  34.776  25.547
 264.14  34.776  25.918
 264.64  34.892  25.362
 265.14  34.776  25.547
 265.64  34.776  25.547
 266.14  34.892  25.362
 266.64  34.892  25.547
 267.14  34.892  25.547
 267.64  34.776  25.547
 268.14  34.776  25.362
 268.64  34.776  25.362
 269.14  34.892  25.732
 269.64  34.892  25.547
 270.14  34.892  25.732
 270.64  34.776  25.362
 271.14  35.005  25.362
 271.64  35.005  25.362
 272.14  34.892  25.362
 272.64  35.005  25.547
 273.14  35.069  25.547
 273.64  35.005  25.362
 274.14  35.005  25.547
 274.64  35.005  25.362
 275.14  35.133  25.547
 275.64  34.892  25.732
 276.15  35.005  25.176
 276.65  34.892  25.547
 277.15  35.005  25.547
 277.65  34.892  25.176
 278.15  35.005  25.362
 278.65  35.069  25.547
 279.15  34.892  25.362
 279.65  35.005  25.362
 280.15  35.005  25.362
 280.65  35.005  25.176
 281.15  35.069  25.362
 281.65  35.005  25.547
 282.15  35.069  25.362
 282.65  35.005  25.362
 283.15  35.069  25.362
 283.65  35.069  25.362
 284.15  34.892  25.362
 284.65  35.005  25.362
 285.15  35.069  25.362
 285.65  35.069  25.362
 286.15  34.892  25.362
 286.65  35.069  25.362
 287.15  35.133  25.176
 287.65  35.069  25.547
 288.15  35.069  25.732
 288.65  35.069  25.547
 289.15  35.069  25.362
 289.65  35.069  25.362
 290.15  35.197  25.176
 290.65  35.133  25.362
 291.15  35.197  25.362
 291.65  35.133  25.547
 292.15  35.133  25.547
 292.65  35.197  25.362
 293.15  35.133  25.176
 293.65  35.069  24.937
 294.15  35.133  25.362
 294.65  35.133  25.362
 295.15  35.133  24.998
 295.65  35.133  25.362
 296.15  35.133  25.547
 296.65  35.133  25.362
 297.15  35.069  25.362
 297.65  35.133  25.362
 298.15  35.261  25.362
 298.65  35.069  25.176
 299.15  35.197  25.176
 299.65  35.261  25.362
 300.15  35.197  25.176
 300.65  35.197  25.362
 301.15  35.197  25.362
 301.65  35.261  25.732
 302.15  35.133  24.998
 302.65  35.133  25.176
 303.15  35.069  25.176
 303.65  35.197  25.176
 304.15  35.197  25.362
 304.65  35.197  25.362
 305.15  35.133  25.362
 305.65  35.197  25.362
 306.15  35.197  24.998
 306.65  35.197  25.362
 307.15  35.197  25.176
 307.65  35.261  25.362
 308.15  35.325  25.362
 308.65  35.261  25.176
 309.15  35.325  25.176
 309.65  35.389  25.176
 310.15  35.261  24.998
 310.65  35.261  25.362
 311.15  35.261  24.998
 311.65  35.261  25.176
 312.15  35.261  25.176
 312.65  35.197  25.362
 313.15  35.325  24.998
 313.65  35.261  25.176
 314.15  35.197  25.176
 314.65  35.261  25.176
 315.15  35.197  24.998
 315.65  35.197  25.362
 316.15  35.453  25.176
 316.65  35.325  25.176
 317.15  35.261  25.176
 317.65  35.325  25.176
 318.15  35.261  25.176
 318.65  35.325  24.998
 319.15  35.325  25.176
 319.65  35.325  25.362
 320.15  35.389  25.176
 320.65  35.389  24.998
 321.15  35.325  24.998
 321.65  35.325  25.176
 322.15  35.325  24.998
 322.65  35.261  24.968
 323.15  35.325  25.362
 323.65  35.325  25.176
 324.15  35.325  24.998
 324.65  35.261  25.176
 325.15  35.325  24.998
 325.65  35.261  25.362
 326.15  35.325  25.176
 326.65  35.325  24.998
 327.15  35.453  24.998
 327.65  35.389  24.998
 328.15  35.389  25.176
 328.65  35.389  25.176
 329.15  35.389  25.176
 329.65  35.325  25.176
 330.15  35.325  25.176
 330.65  35.389  25.362
 331.15  35.453  24.998
 331.65  35.389  25.176
 332.15  35.389  25.176
 332.65  35.389  24.968
 333.15  35.389  25.362
 333.65  35.453  24.998
 334.15  35.389  25.176
 334.65  35.517  25.176
 335.15  35.389  24.998
 335.65  35.453  25.176
 336.15  35.389  25.176
 336.65  35.453  25.176
 337.15  35.453  25.176
 337.65  35.389  25.176
 338.15  35.453  25.176
 338.65  35.517  25.176
 339.15  35.389  25.176
 339.65  35.453  25.176
 340.15  35.453  25.362
 340.65  35.389  25.362
 341.15  35.453  24.998
 341.65  35.325  25.176
 342.15  35.453  24.998
 342.65  35.389  24.968
 343.15  35.453  25.176
 343.65  35.389  25.362
 344.15  35.517  24.998
 344.65  35.453  24.968
 345.15  35.453  25.176
 345.65  35.453  25.176
 346.15  35.517  25.176
 346.65  35.517  24.968
 347.15  35.517  24.998
 347.65  35.517  24.937
 348.15  35.517  24.998
 348.65  35.581  24.998
 349.15  35.645  24.998
 349.65  35.517  25.176
 350.15  35.453  24.998
 350.65  35.453  24.998
 351.15  35.453  24.998
 351.65  35.517  25.362
 352.15  35.517  24.998
 352.65  35.581  24.998
 353.15  35.517  24.998
 353.65  35.581  24.998
 354.15  35.517  24.998
 354.65  35.517  24.998
 355.15  35.517  24.998
 355.65  35.517  24.998
 356.15  35.581  24.998
 356.65  35.581  24.998
 357.15  35.517  24.968
 357.65  35.581  24.998
 358.15  35.581  24.998
 358.65  35.709  24.998
 359.15  35.517  24.998
 359.65  35.581  24.998
 360.15  35.581  24.998
 360.65  35.581  24.998
 361.15  35.645  25.362
 361.65  35.581  24.998
 362.15  35.581  24.998
 362.65  35.517  24.998
 363.15  35.581  24.998
 363.65  35.645  24.998
 364.15  35.517  25.176
 364.65  35.517  24.998
 365.15  35.645  25.176
 365.65  35.645  24.998
 366.15  35.645  24.998
 366.65  35.645  25.176
 367.15  35.645  24.998
 367.65  35.581  24.998
 368.15  35.645  24.998
 368.65  35.645  24.998
 369.15  35.645  24.968
 369.65  35.709  24.968
 370.15  35.645  24.998
 370.65  35.645  24.968
 371.15  35.645  24.998
 371.65  35.645  24.998
 372.15  35.645  25.176
 372.65  35.709  24.998
 373.15  35.645  24.998
 373.65  35.645  24.968
 374.15  35.709  24.998
 374.65  35.581  24.968
 375.15  35.709  25.176
 375.65  35.709  24.968
 376.15  35.709  25.176
 376.65  35.709  25.176
 377.15  35.709  24.998
 377.65  35.709  25.176
 378.15  35.709  25.176
 378.65  35.645  24.998
 379.15  35.709  24.998
 379.65  35.709  25.362
 380.15  35.709  24.998
 380.65  35.709  24.968
 381.15  35.773  24.968
 381.65  35.709  24.998
 382.15  35.709  24.968
 382.65  35.517  24.968
 383.15  35.645  24.968
 383.65  35.773  24.998
 384.15  35.645  25.176
 384.65  35.709  25.176
 385.15  35.709  24.998
 385.65  35.709  24.968
 386.15  35.709  24.968
 386.65  35.773  24.998
 387.15  35.709  24.968
 387.65  35.773  25.176
 388.15  35.773  24.998
 388.65  35.709  24.998
 389.16  35.709  24.998
 389.66  35.645  24.998
 390.16  35.773  24.968
 390.66  35.837  24.937
 391.16  35.709  24.998
 391.66  35.773  24.998
 392.16  35.645  24.998
 392.66  35.709  24.968
 393.16  35.837  24.968
 393.66  35.709  24.998
 394.16  35.773  24.968
 394.66  35.837  24.937
 395.16  35.709  24.968
 395.66  35.773  24.937
 396.16  35.773  24.937
 396.66  35.773  24.968
 397.16  35.837  24.968
 397.66  35.773  24.937
 398.16  35.837  25.362
 398.66  35.837  24.937
 399.16  35.709  24.968
 399.66  35.773  24.968
 400.16  35.837  24.937
 400.66  35.837  24.968
 401.16  35.773  24.998
 401.66  35.837  24.968
 402.16  35.773  24.968
 402.66  35.901  24.968
 403.16  35.837  24.968
 403.66  35.837  24.937
 404.16  35.837  24.968
 404.66  35.837  24.968
 405.16  35.837  24.968
 405.66  35.773  24.998
 406.16  35.837  24.937
 406.66  35.901  24.998
 407.16  35.837  24.937
 407.66  35.837  24.968
 408.16  35.837  24.937
 408.66  35.837  24.998
 409.16  35.773  24.937
 409.66  35.901  24.998
 410.16  35.901  24.906
 410.66  35.837  24.968
 411.16  35.773  24.968
 411.66  35.773  24.968
 412.16  35.837  24.937
 412.66  35.837  24.968
 413.16  35.837  24.937
 413.66  35.901  24.968
 414.16  35.901  24.968
 414.66  35.901  24.937
 415.16  35.901  24.998
 415.66  35.837  24.968
 416.16  35.901  24.968
 416.66  35.965  24.968
 417.16  35.837  24.968
 417.66  35.901  24.968
 418.16  35.773  24.937
 418.66  35.773  24.968
 419.16  35.901  24.968
 419.66  35.901  24.968
 420.16  36.093  24.968
 420.66  35.837  24.937
 421.16  35.965  24.968
 421.66  35.837  24.998
 422.16  35.901  24.968
 422.66  35.901  24.937
 423.16  35.901  24.968
 423.66  35.901  24.937
 424.16  35.901  24.937
 424.66  35.837  24.968
 425.16  35.901  24.937
 425.66  35.901  24.968
 426.16  35.965  24.937
 426.66  35.965  24.968
 427.16  35.965  24.968
 427.66  35.965  24.968
 428.16  35.901  24.968
 428.66  35.901  24.937
 429.16  35.837  24.937
 429.66  35.965  24.937
 430.16  35.965  24.937
 430.66  35.965  24.937
 431.16  35.965  24.937
 431.66  35.965  24.937
 432.16  35.965  24.906
 432.66  35.837  24.906
 433.16  35.965  24.937
 433.66  35.901  24.968
 434.16  35.965  24.937
 434.66  36.029  24.937
 435.16  36.093  24.968
 435.66  36.029  24.968
 436.16  35.965  24.906
 436.66  35.965  24.937
 437.16  36.029  24.937
 437.66  36.029  24.968
 438.16  36.093  24.968
 438.66  35.965  24.937
 439.16  36.093  24.937
 439.66  36.029  24.937
 440.16  35.965  24.937
 440.66  35.965  24.906
 441.16  35.965  24.937
 441.66  35.965  24.937
 442.16  35.965  24.937
 442.66  36.093  24.937
 443.16  36.029  24.968
 443.66  35.965  24.937
 444.16  36.157  24.937
 444.66  36.029  24.937
 445.16  36.029  24.937
 445.66  35.965  24.937
 446.16  35.965  24.937
 446.66  36.093  24.906
 447.16  36.029  24.937
 447.66  36.029  24.998
 448.16  35.965  24.906
 448.66  36.029  24.998
 449.16  36.029  24.906
 449.66  36.029  24.906
 450.16  36.029  24.906
 450.66  35.965  24.906
 451.16  36.029  24.937
 451.66  36.029  24.906
 452.16  36.029  24.937
 452.66  35.965  24.906
 453.16  36.029  24.937
 453.66  36.029  24.937
 454.16  36.029  24.937
 454.66  36.029  24.937
 455.16  36.029  24.937
 455.66  36.029  24.937
 456.16  36.029  24.937
 456.66  36.029  24.937
 457.16  36.093  24.906
 457.66  36.221  24.875
 458.16  36.029  24.968
 458.66  36.093  24.906
 459.16  36.093  24.906
 459.66  36.093  24.906
 460.16  36.029  24.937
 460.66  36.029  24.906
 461.16  36.093  24.937
 461.66  36.093  24.906
 462.16  36.093  24.937
 462.66  36.093  24.906
 463.16  36.029  24.906
 463.66  36.029  24.937
 464.16  36.093  24.968
 464.66  36.093  25.176
 465.16  36.093  24.906
 465.66  36.157  24.937
 466.16  36.093  24.937
 466.66  36.029  24.937
 467.16  36.093  24.937
 467.66  36.093  24.906
 468.16  36.093  24.906
 468.66  36.157  24.968
 469.16  36.093  24.906
 469.66  36.221  24.875
 470.16  36.157  24.906
 470.66  36.157  24.906
 471.16  36.093  24.906
 471.66  36.157  24.906
 472.16  36.093  24.906
 472.66  36.093  24.937
 473.16  36.157  24.906
 473.66  36.157  24.875
 474.16  36.285  24.906
 474.66  36.093  24.968
 475.16  36.157  24.937
 475.66  36.157  24.937
 476.16  36.157  24.937
 476.66  36.157  24.906
 477.16  36.093  24.906
 477.66  36.157  24.937
 478.16  36.157  24.875
 478.66  36.221  24.906
 479.16  36.157  24.906
 479.66  36.157  24.906
 480.16  36.157  24.906
 480.66  36.157  24.906
 481.16  36.157  24.906
 481.66  36.221  24.906
 482.16  36.157  24.906
 482.66  36.029  24.937
 483.16  36.221  24.968
 483.66  36.221  24.906
 484.16  36.157  24.937
 484.66  36.157  24.937
 485.16  36.221  24.906
 485.66  36.221  24.937
 486.16  36.157  24.906
 486.66  36.157  24.937
 487.16  36.221  24.906
 487.66  36.221  24.937
 488.16  36.221  24.906
 488.66  36.221  24.906
 489.16  36.157  24.875
 489.66  36.221  24.875
 490.16  36.221  24.937
 490.66  36.157  24.906
 491.17  36.221  24.906
 491.67  36.285  24.937
 492.17  36.221  24.937
 492.67  36.157  24.906
 493.17  36.221  24.906
 493.67  36.221  24.906
 494.17  36.221  24.906
 494.67  36.221  24.875
 495.17  36.285  24.937
 495.67  36.221  24.906
 496.17  36.221  24.875
 496.67  36.157  24.906
 497.17  36.221  24.906
 497.67  36.349  24.906
 498.17  36.157  24.906
 498.67  36.157  24.906
 499.17  36.285  24.875
 499.67  36.221  24.844
 500.17  36.221  24.906
 500.67  36.285  24.875
 501.17  36.285  24.906
 501.67  36.221  24.906
 502.17  36.285  24.906
 502.67  36.221  24.906
 503.17  36.285  24.875
 503.67  36.285  24.906
 504.17  36.221  24.906
 504.67  36.285  24.906
 505.17  36.285  24.906
 505.67  36.285  24.875
 506.17  36.285  24.906
 506.67  36.285  24.875
 507.17  36.349  24.906
 507.67  36.349  24.906
 508.17  36.285  24.937
 508.67  36.285  24.906
 509.17  36.285  24.875
 509.67  36.285  24.937
 510.17  36.349  24.906
 510.67  36.285  24.875
 511.17  36.285  24.937
 511.67  36.349  24.906
 512.17  36.349  24.906
 512.67  36.221  24.906
 513.17  36.285  24.906
 513.67  36.285  24.875
 514.17  36.285  24.937
 514.67  36.285  24.906
 515.17  36.413  24.906
 515.67  36.349  24.906
 516.17  36.349  24.906
 516.67  36.349  24.906
 517.17  36.285  24.937
 517.67  36.413  24.906
 518.17  36.221  24.906
 518.67  36.349  24.906
 519.17  36.413  24.906
 519.67  36.413  24.906
 520.17  36.285  24.906
 520.67  36.349  24.906
 521.17  36.285  24.875
 521.67  36.413  24.875
 522.17  36.349  24.906
 522.67  36.349  24.875
 523.17  36.349  24.875
 523.67  36.349  24.906
 524.17  36.349  24.906
 524.67  36.285  24.906
 525.17  36.349  24.844
 525.67  36.413  24.875
 526.17  36.349  24.875
 526.67  36.349  24.906
 527.17  36.477  24.875
 527.67  36.349  24.875
 528.17  36.349  24.875
 528.67  36.349  24.906
 529.17  36.413  24.844
 529.67  36.413  24.875
 530.17  36.413  24.906
 530.67  36.413  24.844
 531.17  36.285  24.906
 531.67  36.349  24.906
 532.17  36.349  24.906
 532.67  36.413  24.875
 533.17  36.285  24.875
 533.67  36.413  24.844
 534.17  36.413  24.875
 534.67  36.413  24.906
 535.17  36.349  24.906
 535.67  36.413  24.875
 536.17  36.413  24.875
 536.67  36.349  24.906
 537.17  36.413  24.906
 537.67  36.413  24.844
 538.17  36.413  24.844
 538.67  36.477  24.875
 539.17  36.413  24.844
 539.67  36.477  24.906
 540.17  36.349  24.875
 540.67  36.413  24.875
 541.17  36.541  24.875
 541.67  36.413  24.875
 542.17  36.413  24.875
 542.67  36.413  24.906
 543.17  36.413  24.844
 543.67  36.413  24.875
 544.17  36.413  24.875
 544.67  36.413  24.906
 545.17  36.477  24.844
 545.67  36.413  24.844
 546.17  36.413  24.875
 546.67  36.413  24.875
 547.17  36.477  24.875
 547.67  36.285  24.875
 548.17  36.477  24.875
 548.67  36.477  24.814
 549.17  36.477  24.844
 549.67  36.349  24.875
 550.17  36.413  24.875
 550.67  36.477  24.844
 551.17  36.541  24.875
 551.67  36.413  24.844
 552.17  36.349  24.906
 552.67  36.477  24.906
 553.17  36.477  24.875
 553.67  36.477  24.875
 554.17  36.413  24.906
 554.67  36.477  24.875
 555.17  36.413  24.875
 555.67  36.477  24.844
 556.17  36.413  24.906
 556.67  36.413  24.906
 557.17  36.477  24.906
 557.67  36.541  24.906
 558.17  36.413  24.875
 558.67  36.541  24.875
 559.17  36.413  24.844
 559.67  36.477  24.875
 560.17  36.477  24.875
 560.67  36.477  24.844
 561.17  36.541  24.844
 561.67  36.477  24.875
 562.17  36.541  24.844
 562.67  36.477  24.875
 563.17  36.413  24.906
 563.67  36.413  24.844
 564.17  36.477  24.875
 564.67  36.413  24.844
 565.17  36.541  24.875
 565.67  36.413  24.844
 566.17  36.541  24.844
 566.67  36.477  24.875
 567.17  36.477  24.875
 567.67  36.541  24.875
 568.17  36.541  24.875
 568.67  36.477  24.875
 569.17  36.541  24.875
 569.67  36.477  24.844
 570.17  36.541  24.875
 570.67  36.541  24.844
 571.17  36.541  24.844
 571.67  36.541  24.814
 572.17  36.477  24.875
 572.67  36.541  24.814
 573.17  36.477  24.844
 573.67  36.605  24.875
 574.17  36.541  24.875
 574.67  36.541  24.875
 575.17  36.541  24.844
 575.67  36.477  24.875
 576.17  36.541  24.844
 576.67  36.541  24.875
 577.17  36.541  24.875
 577.67  36.605  24.844
 578.17  36.541  24.906
 578.67  36.541  24.844
 579.17  36.477  24.875
 579.67  36.541  24.844
 580.17  36.733  24.844
 580.67  36.605  24.844
 581.17  36.541  24.875
 581.67  36.541  24.844
 582.17  36.477  24.875
 582.67  36.477  24.814
 583.17  36.541  24.906
 583.67  36.605  24.875
 584.17  36.541  24.844
 584.67  36.605  24.844
 585.17  36.477  24.844
 585.67  36.477  24.875
 586.17  36.541  24.844
 586.67  36.541  24.844
 587.17  36.605  24.875
 587.67  36.541  24.844
 588.17  36.605  24.844
 588.67  36.477  24.844
 589.17  36.605  24.875
 589.67  36.541  24.814
 590.17  36.541  24.814
 590.67  36.541  24.844
 591.17  36.541  24.875
 591.67  36.541  24.875
 592.17  36.605  24.906
 592.67  36.605  24.875
 593.17  36.605  24.844
 593.67  36.605  24.875
 594.17  36.605  24.814
 594.67  36.669  24.844
 595.17  36.541  24.844
 595.67  36.541  24.875
 596.17  36.541  24.814
 596.67  36.605  24.844
 597.17  36.605  24.844
 597.67  36.605  24.844
 598.17  36.605  24.844
 598.67  36.605  24.814
 599.17  36.605  24.814
 599.67  36.605  24.875
 600.17  36.605  24.875
 600.67  36.605  24.814
 601.17  36.605  24.844
 601.67  36.605  24.875
 602.17  36.605  24.844
 602.67  36.605  24.814
 603.17  36.669  24.844
 603.67  36.605  24.844
 604.17  36.669  24.875
 604.67  36.605  24.844
 605.17  36.605  24.844
 605.67  36.669  24.844
 606.17  36.605  24.814
 606.67  36.605  24.875
 607.17  36.669  24.814
 607.67  36.669  24.814
 608.17  36.605  24.814
 608.67  36.605  24.875
 609.17  36.605  24.844
 609.67  36.669  24.783
 610.17  36.669  24.844
 610.67  36.669  24.844
 611.17  36.605  24.814
 611.67  36.669  24.844
 612.17  36.605  24.814
 612.67  36.605  24.844
 613.17  36.669  24.844
 613.67  36.541  24.844
 614.17  36.669  24.814
 614.67  36.605  24.844
 615.17  36.605  24.814
 615.68  36.605  24.906
 616.18  36.669  24.844
 616.68  36.605  24.844
 617.18  36.477  24.814
 617.68  36.605  24.844
 618.18  36.669  24.844
 618.68  36.669  24.783
 619.18  36.605  24.844
 619.68  36.669  24.844
 620.18  36.733  24.844
 620.68  36.669  24.844
 621.18  36.669  24.844
 621.68  36.733  24.844
 622.18  36.669  24.844
 622.68  36.605  24.844
 623.18  36.669  24.814
 623.68  36.733  24.814
 624.18  36.669  24.814
 624.68  36.669  24.844
 625.18  36.669  24.844
 625.68  36.733  24.814
 626.18  36.669  24.875
 626.68  36.669  24.844
 627.18  36.669  24.844
 627.68  36.733  24.814
 628.18  36.669  24.814
 628.68  36.669  24.844
 629.18  36.669  24.844
 629.68  36.541  24.844
 630.18  36.669  24.844
 630.68  36.669  24.844
 631.18  36.669  24.844
 631.68  36.733  24.844
 632.18  36.733  24.814
 632.68  36.733  24.814
 633.18  36.733  24.844
 633.68  36.733  24.814
 634.18  36.669  24.844
 634.68  36.733  24.844
 635.18  36.669  24.814
 635.68  36.669  24.844
 636.18  36.669  24.844
 636.68  36.733  24.844
 637.18  36.733  24.814
 637.68  36.733  24.844
 638.18  36.797  24.844
 638.68  36.733  24.814
 639.18  36.797  24.844
 639.68  36.669  24.814
 640.18  36.669  24.814
 640.68  36.733  24.844
 641.18  36.733  24.814
 641.68  36.733  24.814
 642.18  36.669  24.844
 642.68  36.669  24.814
 643.18  36.733  24.814
 643.68  36.733  24.875
 644.18  36.733  24.844
 644.68  36.797  24.844
 645.18  36.733  24.814
 645.68  36.669  24.814
 646.18  36.733  24.814
 646.68  36.733  24.844
 647.18  36.733  24.844
 647.68  36.733  24.844
 648.18  36.733  24.844
 648.68  36.797  24.844
 649.18  36.797  24.814
 649.68  36.733  24.814
 650.18  36.797  24.844
 650.68  36.797  24.844
 651.18  36.797  24.844
 651.68  36.733  24.814
 652.18  36.733  24.844
 652.68  36.861  24.814
 653.18  36.861  24.844
 653.68  36.797  24.783
 654.18  36.797  24.844
 654.68  36.797  24.844
 655.18  36.797  24.814
 655.68  36.797  24.814
 656.18  36.797  24.814
 656.68  36.797  24.814
 657.18  36.733  24.814
 657.68  36.797  24.814
 658.18  36.797  24.814
 658.68  36.797  24.844
 659.18  36.797  24.814
 659.68  36.797  24.844
 660.18  36.797  24.814
 660.68  36.797  24.814
 661.18  36.861  24.814
 661.68  36.797  24.844
 662.18  36.797  24.844
 662.68  36.861  24.844
 663.18  36.733  24.814
 663.68  36.797  24.844
 664.18  36.797  24.814
 664.68  36.861  24.844
 665.18  36.797  24.844
 665.68  36.797  24.814
 666.18  36.797  24.875
 666.68  36.797  24.783
 667.18  36.861  24.814
 667.68  36.797  24.814
 668.18  36.797  24.783
 668.68  36.797  24.814
 669.18  36.797  24.814
 669.68  36.733  24.844
 670.18  36.861  24.844
 670.68  36.797  24.783
 671.18  36.797  24.783
 671.68  36.797  24.844
 672.18  36.861  24.844
 672.68  36.861  24.844
 673.18  36.797  24.783
 673.68  36.861  24.844
 674.18  36.797  24.814
 674.68  36.797  24.814
 675.18  36.797  24.814
 675.68  36.861  24.814
 676.18  36.861  24.814
 676.68  36.861  24.783
 677.18  36.861  24.814
 677.68  36.861  24.814
 678.18  36.797  24.844
 678.68  36.861  24.783
 679.18  36.797  24.814
 679.68  36.861  24.783
 680.18  36.861  24.814
 680.68  36.861  24.814
 681.18  36.861  24.844
 681.68  36.797  24.814
 682.18  36.861  24.814
 682.68  36.861  24.783
 683.18  36.861  24.814
 683.68  36.861  24.783
 684.18  36.861  24.814
 684.68  36.925  24.844
 685.18  36.797  24.783
 685.68  36.861  24.844
 686.18  36.861  24.814
 686.68  36.861  24.783
 687.18  36.925  24.814
 687.68  36.861  24.814
 688.18  36.797  24.783
 688.68  36.797  24.783
 689.18  36.861  24.783
 689.68  36.861  24.783
 690.18  36.861  24.814
 690.68  36.925  24.844
 691.18  36.861  24.783
 691.68  36.925  24.814
 692.18  36.797  24.783
 692.68  36.925  24.814
 693.18  36.925  24.814
 693.68  36.861  24.814
 694.18  36.861  24.783
 694.68  36.861  24.783
 695.18  36.861  24.783
 695.68  36.861  24.783
 696.18  36.861  24.814
 696.68  36.861  24.783
 697.18  36.861  24.814
 697.68  36.861  24.752
 698.18  36.925  24.814
 698.68  36.861  24.844
 699.18  36.989  24.814
 699.68  36.861  24.844
 700.18  36.925  24.783
 700.68  36.797  24.814
 701.18  36.797  24.783
 701.68  36.861  24.844
 702.18  36.925  24.814
 702.68  36.925  24.783
 703.18  36.861  24.814
 703.68  36.861  24.814
 704.18  37.053  24.783
 704.68  36.925  24.783
 705.18  36.861  24.814
 705.68  36.925  24.783
 706.18  36.989  24.814
 706.68  36.989  24.783
 707.18  36.925  24.752
 707.68  36.989  24.844
 708.18  36.925  24.814
 708.68  36.925  24.783
 709.18  36.925  24.814
 709.68  36.861  24.783
 710.18  36.989  24.783
 710.68  36.925  24.814
 711.18  36.861  24.814
 711.68  36.925  24.814
 712.18  36.925  24.814
 712.68  36.925  24.783
 713.18  36.797  24.814
 713.68  36.925  24.783
 714.18  36.989  24.752
 714.68  36.925  24.783
 715.18  36.989  24.783
 715.68  36.925  24.783
 716.18  36.925  24.783
 716.68  36.925  24.783
 717.18  36.989  24.814
 717.68  36.925  24.814
 718.18  36.989  24.814
 718.68  36.925  24.814
 719.18  36.925  24.814
 719.68  36.925  24.783
 720.18  36.989  24.814
 720.68  36.989  24.844
 721.18  37.053  24.844
 721.68  36.925  24.814
 722.18  36.989  24.783
 722.68  36.989  24.783
 723.18  36.989  24.783
 723.68  36.989  24.783
 724.18  36.925  24.752
 724.68  36.989  24.814
 725.18  37.181  24.783
 725.68  36.861  24.783
 726.18  36.989  24.814
 726.68  36.989  24.814
 727.18  36.989  24.814
 727.68  36.989  24.814
 728.18  36.989  24.814
 728.69  37.053  24.783
 729.19  36.989  24.814
 729.69  36.989  24.783
 730.19  36.989  24.783
 730.69  36.989  24.783
 731.19  36.925  24.814
 731.69  36.925  24.783
 732.19  36.989  24.814
 732.69  36.989  24.783
 733.19  36.989  24.814
 733.69  37.053  24.783
 734.19  37.053  24.783
 734.69  36.989  24.783
 735.19  37.053  24.814
 735.69  36.989  24.814
 736.19  36.925  24.814
 736.69  36.925  24.783
 737.19  36.989  24.783
 737.69  36.989  24.783
 738.19  36.925  24.783
 738.69  36.989  24.783
 739.19  36.989  24.783
 739.69  37.053  24.752
 740.19  36.925  24.783
 740.69  36.989  24.783
 741.19  37.053  24.783
 741.69  36.989  24.783
 742.19  36.989  24.783
 742.69  36.989  24.783
 743.19  36.989  24.783
 743.69  37.053  24.752
 744.19  37.053  24.752
 744.69  37.053  24.814
 745.19  37.053  24.783
 745.69  36.989  24.783
 746.19  37.053  24.814
 746.69  36.989  24.814
 747.19  37.053  24.783
 747.69  37.053  24.752
 748.19  36.925  24.783
 748.69  37.053  24.752
 749.19  37.053  24.783
 749.69  36.989  24.814
 750.19  37.053  24.814
 750.69  37.117  24.783
 751.19  37.053  24.814
 751.69  36.989  24.783
 752.19  37.053  24.783
 752.69  37.053  24.783
 753.19  37.053  24.752
 753.69  37.117  24.783
 754.19  37.053  24.814
 754.69  37.053  24.783
 755.19  37.053  24.783
 755.69  37.053  24.783
 756.19  37.053  24.783
 756.69  36.989  24.783
 757.19  36.989  24.783
 757.69  37.053  24.783
 758.19  37.053  24.814
 758.69  37.053  24.783
 759.19  37.117  24.844
 759.69  37.053  24.783
 760.19  37.053  24.814
 760.69  37.053  24.814
 761.19  37.053  24.783
 761.69  37.117  24.783
 762.19  37.053  24.783
 762.69  37.053  24.814
 763.19  37.053  24.783
 763.69  37.181  24.752
 764.19  37.053  24.783
 764.69  37.117  24.783
 765.19  37.181  24.814
 765.69  37.117  24.783
 766.19  37.053  24.752
 766.69  37.053  24.844
 767.19  36.989  24.783
 767.69  37.053  24.814
 768.19  37.053  24.783
 768.69  37.117  24.783
 769.19  37.053  24.752
 769.69  37.117  24.783
 770.19  37.053  24.783
 770.69  37.053  24.814
 771.19  37.053  24.783
 771.69  37.053  24.783
 772.19  37.053  24.752
 772.69  37.053  24.752
 773.19  37.053  24.752
 773.69  36.989  24.814
 774.19  37.053  24.752
 774.69  37.053  24.814
 775.19  37.117  24.752
 775.69  37.117  24.783
 776.19  37.117  24.814
 776.69  37.117  24.783
 777.19  37.053  24.752
 777.69  37.117  24.752
 778.19  37.117  24.783
 778.69  37.181  24.752
 779.19  37.117  24.783
 779.69  37.117  24.783
 780.19  37.117  24.783
 780.69  36.989  24.783
 781.19  37.117  24.783
 781.69  37.117  24.783
 782.19  37.181  24.783
 782.69  37.181  24.783
 783.19  37.053  24.783
 783.69  37.117  24.783
 784.19  37.181  24.752
 784.69  37.117  24.783
 785.19  37.117  24.721
 785.69  37.117  24.783
 786.19  37.117  24.752
 786.69  37.117  24.783
 787.19  37.053  24.783
 787.69  37.053  24.783
 788.19  37.117  24.783
 788.69  37.117  24.814
 789.19  37.117  24.783
 789.69  37.117  24.783
 790.19  37.117  24.783
 790.69  37.117  24.752
 791.19  37.117  24.752
 791.69  37.117  24.783
 792.19  37.245  24.752
 792.69  37.117  24.721
 793.19  37.117  24.752
 793.69  37.181  24.783
 794.19  37.309  24.752
 794.69  37.181  24.783
 795.19  37.117  24.783
 795.69  37.117  24.783
 796.19  37.117  24.783
 796.69  37.117  24.814
 797.19  37.181  24.783
 797.69  37.181  24.783
 798.19  37.117  24.752
 798.69  37.181  24.783
 799.19  37.181  24.783
 799.69  37.117  24.814
 800.19  37.117  24.783
 800.69  37.181  24.752
 801.19  37.181  24.783
 801.69  37.181  24.783
 802.19  37.117  24.783
 802.69  37.181  24.721
 803.19  37.245  24.783
 803.69  37.181  24.752
 804.19  37.181  24.783
 804.69  37.053  24.783
 805.19  37.181  24.783
 805.69  37.181  24.752
 806.19  37.053  24.783
 806.69  37.117  24.752
 807.19  37.181  24.752
 807.69  37.181  24.752
 808.19  37.181  24.783
 808.69  37.181  24.783
 809.19  37.181  24.752
 809.69  37.181  24.783
 810.19  37.181  24.783
 810.69  37.245  24.752
 811.19  37.245  24.783
 811.69  37.181  24.875
 812.19  37.181  24.752
 812.69  37.117  24.783
 813.19  37.181  24.752
 813.69  37.245  24.752
 814.19  37.181  24.783
 814.69  37.117  24.721
 815.19  37.117  24.783
 815.69  37.181  24.752
 816.19  37.181  24.752
 816.69  37.117  24.752
 817.19  37.117  24.752
 817.69  37.245  24.752
 818.19  37.181  24.783
 818.69  37.181  24.721
 819.19  37.181  24.752
 819.69  37.181  24.752
 820.19  37.245  24.752
 820.69  37.181  24.752
 821.19  37.245  24.752
 821.69  37.117  24.783
 822.19  37.181  24.752
 822.69  37.117  24.752
 823.19  37.181  24.783
 823.69  37.181  24.783
 824.19  37.309  24.752
 824.69  37.181  24.752
 825.19  37.181  24.752
 825.69  37.181  24.752
 826.19  37.181  24.752
 826.69  37.117  24.814
 827.19  37.245  24.783
 827.69  37.117  24.783
 828.19  37.245  24.752
 828.69  37.245  24.721
 829.19  37.245  24.783
 829.69  37.181  24.752
 830.19  37.245  24.783
 830.70  37.309  24.721
 831.20  37.245  24.783
 831.70  37.245  24.783
 832.20  37.245  24.783
 832.70  37.181  24.752
 833.20  37.309  24.752
 833.70  37.245  24.752
 834.20  37.181  24.783
 834.70  37.245  24.783
 835.20  37.245  24.814
 835.70  37.181  24.783
 836.20  37.245  24.752
 836.70  37.245  24.783
 837.20  37.309  24.752
 837.70  37.245  24.752
 838.20  37.245  24.783
 838.70  37.245  24.783
 839.20  37.245  24.752
 839.70  37.245  24.783
 840.20  37.245  24.752
 840.70  37.309  24.752
 841.20  37.245  24.752
 841.70  37.181  24.783
 842.20  37.309  24.752
 842.70  37.309  24.752
 843.20  37.245  24.814
 843.70  37.245  24.783
 844.20  37.245  24.752
 844.70  37.245  24.721
 845.20  37.181  24.783
 845.70  37.181  24.752
 846.20  37.181  24.752
 846.70  37.245  24.752
 847.20  37.245  24.752
 847.70  37.373  24.752
 848.20  37.181  24.814
 848.70  37.309  24.783
 849.20  37.117  24.752
 849.70  37.245  24.783
 850.20  37.181  24.721
 850.70  37.245  24.721
 851.20  37.245  24.783
 851.70  37.309  24.752
 852.20  37.245  24.752
 852.70  37.309  24.721
 853.20  37.309  24.783
 853.70  37.245  24.783
 854.20  37.245  24.752
 854.70  37.245  24.783
 855.20  37.245  24.721
 855.70  37.309  24.752
 856.20  37.309  24.783
 856.70  37.309  24.752
 857.20  37.245  24.752
 857.70  37.181  24.752
 858.20  37.245  24.752
 858.70  37.309  24.752
 859.20  37.309  24.752
 859.70  37.245  24.752
 860.20  37.309  24.783
 860.70  37.245  24.721
 861.20  37.309  24.783
 861.70  37.309  24.783
 862.20  37.245  24.752
 862.70  37.309  24.752
 863.20  37.245  24.721
 863.70  37.309  24.721
 864.20  37.245  24.752
 864.70  37.309  24.752
 865.20  37.245  24.721
 865.70  37.309  24.721
 866.20  37.309  24.721
 866.70  37.309  24.752
 867.20  37.309  24.752
 867.70  37.309  24.752
 868.20  37.309  24.752
 868.70  37.373  24.752
 869.20  37.501  24.752
 869.70  37.309  24.752
 870.20  37.373  24.752
 870.70  37.309  24.752
 871.20  37.309  24.721
 871.70  37.245  24.783
 872.20  37.309  24.721
 872.70  37.309  24.721
 873.20  37.309  24.752
 873.70  37.373  24.721
 874.20  37.309  24.690
 874.70  37.309  24.721
 875.20  37.245  24.752
 875.70  37.309  24.752
 876.20  37.309  24.752
 876.70  37.309  24.783
 877.20  37.309  24.752
 877.70  37.309  24.721
 878.20  37.309  24.752
 878.70  37.373  24.752
 879.20  37.309  24.752
 879.70  37.309  24.752
 880.20  37.309  24.814
 880.70  37.309  24.752
 881.20  37.373  24.721
 881.70  37.309  24.721
 882.20  37.245  24.752
 882.70  37.309  24.752
 883.20  37.309  24.752
 883.70  37.309  24.752
 884.20  37.373  24.752
 884.70  37.309  24.721
 885.20  37.309  24.721
 885.70  37.373  24.721
 886.20  37.245  24.752
 886.70  37.309  24.752
 887.20  37.309  24.721
 887.70  37.309  24.721
 888.20  37.309  24.721
 888.70  37.309  24.752
 889.20  37.373  24.783
 889.70  37.373  24.721
 890.20  37.373  24.752
 890.70  37.501  24.721
 891.20  37.373  24.721
 891.70  37.309  24.752
 892.20  37.373  24.752
 892.70  37.373  24.721
 893.20  37.309  24.752
 893.70  37.373  24.721
 894.20  37.309  24.752
 894.70  37.373  24.752
 895.20  37.373  24.752
 895.70  37.373  24.721
 896.20  37.373  24.721
 896.70  37.373  24.752
 897.20  37.373  24.783
 897.70  37.437  24.721
 898.20  37.373  24.721
 898.70  37.373  24.752
 899.20  37.373  24.783
 899.70  37.373  24.783
 900.20  37.309  24.752
 900.70  37.373  24.752
 901.20  37.373  24.752
 901.70  37.437  24.752
 902.20  37.373  24.844
 902.70  37.309  24.752
 903.20  37.373  24.721
 903.70  37.373  24.752
 904.20  37.437  24.752
 904.70  37.437  24.721
 905.20  37.309  24.752
 905.70  37.373  24.752
 906.20  37.245  24.783
 906.70  37.437  24.721
 907.20  37.373  24.752
 907.70  37.437  24.752
 908.20  37.437  24.721
 908.70  37.373  24.752
 909.20  37.373  24.752
 909.70  37.245  24.752
 910.20  37.373  24.752
 910.70  37.373  24.752
 911.20  37.373  24.783
 911.70  37.373  24.721
 912.20  37.373  24.783
 912.70  37.373  24.752
 913.20  37.309  24.752
 913.70  37.437  24.721
 914.20  37.373  24.752
 914.70  37.373  24.752
 915.20  37.373  24.721
 915.70  37.373  24.752
 916.20  37.437  24.752
 916.70  37.437  24.752
 917.20  37.373  24.752
 917.70  37.373  24.752
 918.20  37.373  24.752
 918.70  37.373  24.721
 919.20  37.437  24.752
 919.70  37.373  24.721
 920.20  37.373  24.752
 920.70  37.437  24.752
 921.20  37.437  24.752
 921.70  37.437  24.721
 922.20  37.437  24.752
 922.70  37.437  24.752
 923.20  37.437  24.752
 923.70  37.373  24.752
 924.20  37.373  24.752
 924.70  37.501  24.752
 925.20  37.373  24.721
 925.70  37.373  24.752
 926.20  37.437  24.721
 926.70  37.437  24.752
 927.20  37.373  24.783
 927.70  37.437  24.721
 928.20  37.437  24.721
 928.70  37.373  24.752
 929.20  37.437  24.752
 929.70  37.501  24.752
 930.20  37.437  24.752
 930.70  37.373  24.752
 931.20  37.437  24.752
 931.70  37.437  24.752
 932.20  37.373  24.721
 932.70  37.437  24.752
 933.20  37.501  24.752
 933.70  37.437  24.752
 934.20  37.373  24.721
 934.70  37.437  24.752
 935.20  37.437  24.752
 935.70  37.437  24.752
 936.20  37.373  24.752
 936.70  37.373  24.752
 937.20  37.437  24.721
 937.70  37.501  24.690
 938.20  37.501  24.752
 938.70  37.437  24.752
 939.20  37.437  24.752
 939.70  37.373  24.752
 940.20  37.373  24.752
 940.70  37.437  24.752
 941.20  37.437  24.814
 941.70  37.373  24.721
 942.20  37.437  24.721
 942.70  37.565  24.752
 943.20  37.437  24.783
 943.70  37.373  24.721
 944.21  37.373  24.721
 944.71  37.437  24.752
 945.21  37.437  24.752
 945.71  37.437  24.721
 946.21  37.373  24.783
 946.71  37.437  24.752
 947.21  37.309  24.752
 947.71  37.437  24.690
 948.21  37.437  24.721
 948.71  37.437  24.690
 949.21  37.501  24.721
 949.71  37.501  24.721
 950.21  37.373  24.721
 950.71  37.501  24.752
 951.21  37.437  24.721
 951.71  37.501  24.721
 952.21  37.373  24.690
 952.71  37.373  24.721
 953.21  37.437  24.721
 953.71  37.437  24.752
 954.21  37.437  24.752
 954.71  37.437  24.690
 955.21  37.437  24.752
 955.71  37.565  24.752
 956.21  37.437  24.721
 956.71  37.501  24.752
 957.21  37.501  24.752
 957.71  37.437  24.721
 958.21  37.501  24.721
 958.71  37.501  24.752
 959.21  37.437  24.752
 959.71  37.501  24.721
 960.21  37.501  24.721
 960.71  37.501  24.752
 961.21  37.373  24.752
 961.71  37.501  24.721
 962.21  37.437  24.721
 962.71  37.565  24.721
 963.21  37.501  24.752
 963.71  37.501  24.752
 964.21  37.437  24.752
 964.71  37.501  24.690
 965.21  37.501  24.721
 965.71  37.501  24.752
 966.21  37.501  24.721
 966.71  37.501  24.752
 967.21  37.501  24.721
 967.71  37.501  24.752
 968.21  37.501  24.752
 968.71  37.501  24.752
 969.21  37.501  24.721
 969.71  37.437  24.690
 970.21  37.501  24.721
 970.71  37.501  24.721
 971.21  37.501  24.752
 971.71  37.501  24.721
 972.21  37.501  24.721
 972.71  37.501  24.721
 973.21  37.501  24.721
 973.71  37.501  24.721
 974.21  37.437  24.721
 974.71  37.501  24.721
 975.21  37.565  24.690
 975.71  37.501  24.721
 976.21  37.565  24.690
 976.71  37.565  24.721
 977.21  37.501  24.752
 977.71  37.501  24.721
 978.21  37.565  24.721
 978.71  37.501  24.752
 979.21  37.437  24.721
 979.71  37.565  24.721
 980.21  37.501  24.752
 980.71  37.501  24.690
 981.21  37.565  24.752
 981.71  37.501  24.752
 982.21  37.565  24.752
 982.71  37.501  24.752
 983.21  37.501  24.752
 983.71  37.565  24.721
 984.21  37.565  24.752
 984.71  37.501  24.752
 985.21  37.501  24.752
 985.71  37.565  24.752
 986.21  37.501  24.690
 986.71  37.501  24.721
 987.21  37.565  24.721
 987.71  37.501  24.721
 988.21  37.437  24.690
 988.71  37.437  24.721
 989.21  37.501  24.721
 989.71  37.437  24.752
 990.21  37.629  24.814
 990.71  37.501  24.721
 991.21  37.565  24.721
 991.71  37.501  24.721
 992.21  37.501  24.721
 992.71  37.565  24.752
 993.21  37.565  24.721
 993.71  37.501  24.721
 994.21  37.501  24.690
 994.71  37.565  24.690
 995.21  37.565  24.690
 995.71  37.565  24.721
 996.21  37.501  24.721
 996.71  37.501  24.721
 997.21  37.437  24.721
 997.71  37.565  24.721
 998.21  37.629  24.690
 998.71  37.565  24.690
 999.21  37.501  24.690
 999.71  37.501  24.721
1000.21  37.501  24.690
1000.71  37.565  24.721
1001.21  37.501  24.721
1001.71  37.565  24.690
1002.21  37.565  24.690
1002.71  37.501  24.690
1003.21  37.501  24.721
1003.71  37.501  24.752
1004.21  37.437  24.721
1004.71  37.501  24.721
1005.21  37.565  24.690
1005.71  37.565  24.690
1006.21  37.565  24.721
1006.71  37.501  24.690
1007.21  37.693  24.752
1007.71  37.501  24.690
1008.21  37.565  24.721
1008.71  37.565  24.690
1009.21  37.565  24.721
1009.71  37.501  24.690
1010.21  37.565  24.721
1010.71  37.565  24.690
1011.21  37.565  24.721
1011.71  37.501  24.721
1012.21  37.565  24.721
1012.71  37.501  24.690
1013.21  37.565  24.752
1013.71  37.501  24.690
1014.21  37.565  24.690
1014.71  37.501  24.690
1015.21  37.565  24.721
1015.71  37.565  24.721
1016.21  37.565  24.721
1016.71  37.565  24.721
1017.21  37.565  24.690
1017.71  37.565  24.690
1018.21  37.501  24.752
1018.71  37.565  24.721
1019.21  37.629  24.721
1019.71  37.629  24.721
1020.21  37.565  24.721
1020.71  37.565  24.721
1021.21  37.629  24.690
1021.71  37.565  24.721
1022.21  37.629  24.752
1022.71  37.501  24.721
1023.21  37.565  24.690
1023.71  37.565  24.690
1024.21  37.501  24.690
1024.71  37.629  24.721
1025.21  37.565  24.721
1025.71  37.565  24.721
1026.21  37.565  24.690
1026.71  37.565  24.721
1027.21  37.565  24.721
1027.71  37.629  24.752
1028.21  37.565  24.721
1028.71  37.693  24.690
1029.21  37.629  24.783
1029.71  37.565  24.660
1030.21  37.565  24.721
1030.71  37.629  24.721
1031.21  37.629  24.752
1031.71  37.629  24.721
1032.21  37.629  24.721
1032.71  37.693  24.721
1033.21  37.629  24.721
1033.71  37.629  24.752
1034.21  37.693  24.690
1034.71  37.629  24.721
1035.21  37.629  24.721
1035.71  37.501  24.690
1036.21  37.629  24.690
1036.71  37.565  24.721
1037.21  37.693  24.690
1037.71  37.565  24.690
1038.21  37.629  24.721
1038.71  37.693  24.721
1039.21  37.693  24.690
1039.71  37.565  24.690
1040.21  37.693  24.690
1040.71  37.501  24.721
1041.21  37.629  24.721
1041.71  37.693  24.690
1042.21  37.501  24.721
1042.71  37.565  24.752
1043.21  37.693  24.690
1043.71  37.629  24.690
1044.21  37.629  24.721
1044.71  37.629  24.721
1045.21  37.629  24.690
1045.71  37.629  24.690
1046.21  37.629  24.690
1046.71  37.629  24.721
1047.21  37.629  24.721
1047.71  37.629  24.721
1048.21  37.629  24.752
1048.71  37.629  24.721
1049.21  37.629  24.721
1049.71  37.693  24.721
1050.21  37.565  24.660
1050.71  37.757  24.690
1051.21  37.629  24.721
1051.71  37.629  24.721
1052.21  37.693  24.752
1052.71  37.629  24.721
1053.21  37.629  24.721
1053.71  37.693  24.721
1054.21  37.629  24.690
1054.71  37.629  24.690
1055.21  37.629  24.721
1055.71  37.629  24.690
1056.21  37.821  24.660
1056.71  37.629  24.690
1057.21  37.629  24.721
1057.71  37.885  24.721
1058.21  37.693  24.690
1058.71  37.757  24.721
1059.21  37.629  24.690
1059.71  37.629  24.721
1060.21  37.629  24.721
1060.71  37.693  24.721
1061.21  37.629  24.814
1061.71  37.629  24.690
1062.21  37.629  24.690
1062.71  37.565  24.690
1063.21  37.629  24.721
1063.71  37.693  24.721
1064.21  37.565  24.721
1064.71  37.629  24.752
1065.21  37.693  24.690
1065.71  37.693  24.752
1066.21  37.693  24.690
1066.71  37.693  24.690
1067.21  37.565  24.721
1067.71  37.629  24.690
1068.22  37.629  24.721
1068.72  37.693  24.690
1069.22  37.693  24.690
1069.72  37.693  24.690
1070.22  37.693  24.721
1070.72  37.693  24.721
1071.22  37.629  24.690
1071.72  37.629  24.690
1072.22  37.693  24.690
1072.72  37.693  24.690
1073.22  37.757  24.721
1073.72  37.629  24.690
1074.22  37.821  24.721
1074.72  37.693  24.721
1075.22  37.629  24.690
1075.72  37.629  24.721
1076.22  37.693  24.721
1076.72  37.693  24.690
1077.22  37.629  24.690
1077.72  37.629  24.752
1078.22  37.693  24.721
1078.72  37.693  24.721
1079.22  37.693  24.690
1079.72  37.693  24.783
1080.22  37.629  24.721
1080.72  37.693  24.721
1081.22  37.693  24.690
1081.72  37.693  24.752
1082.22  37.629  24.721
1082.72  37.757  24.690
1083.22  37.693  24.721
1083.72  37.629  24.721
1084.22  37.693  24.752
1084.72  37.693  24.690
1085.22  37.693  24.721
1085.72  37.693  24.721
1086.22  37.629  24.721
1086.72  37.565  24.721
1087.22  37.757  24.721
1087.72  37.693  24.721
1088.22  37.693  24.690
1088.72  37.757  24.721
1089.22  37.693  24.721
1089.72  37.693  24.721
1090.22  37.629  24.721
1090.72  37.757  24.721
1091.22  37.693  24.690
1091.72  37.629  24.690
1092.22  37.757  24.690
1092.72  37.757  24.660
1093.22  37.693  24.721
1093.72  37.693  24.721
1094.22  37.693  24.690
1094.72  37.757  24.690
1095.22  37.757  24.690
1095.72  37.693  24.721
1096.22  37.757  24.721
1096.72  37.693  24.690
1097.22  37.693  24.690
1097.72  37.693  24.690
1098.22  37.693  24.752
1098.72  37.757  24.690
1099.22  37.693  24.721
1099.72  37.693  24.721
1100.22  37.693  24.690
1100.72  37.693  24.721
1101.22  37.693  24.721
1101.72  37.629  24.690
1102.22  37.693  24.721
1102.72  37.757  24.690
1103.22  37.757  24.690
1103.72  37.629  24.721
1104.22  37.757  24.721
1104.72  37.693  24.690
1105.22  37.693  24.690
1105.72  37.693  24.721
1106.22  37.693  24.721
1106.72  37.693  24.690
1107.22  37.757  24.690
1107.72  37.693  24.690
1108.22  37.757  24.721
1108.72  37.693  24.690
1109.22  37.693  24.721
1109.72  37.757  24.690
1110.22  37.757  24.690
1110.72  37.757  24.690
1111.22  37.693  24.690
1111.72  37.821  24.690
1112.22  37.693  24.721
1112.72  37.757  24.690
1113.22  37.565  24.721
1113.72  37.757  24.690
1114.22  37.693  24.690
1114.72  37.693  24.721
1115.22  37.757  24.660
1115.72  37.693  24.690
1116.22  37.757  24.690
1116.72  37.757  24.690
1117.22  37.757  24.752
1117.72  37.757  24.721
1118.22  37.629  24.752
1118.72  37.757  24.690
1119.22  37.757  24.690
1119.72  37.693  24.690
1120.22  37.821  24.690
1120.72  37.693  24.690
1121.22  37.821  24.690
1121.72  37.757  24.660
1122.22  37.757  24.721
1122.72  37.757  24.721
1123.22  37.757  24.721
1123.72  37.757  24.690
1124.22  37.757  24.721
1124.72  37.757  24.690
1125.22  37.757  24.721
1125.72  37.757  24.690
1126.22  37.757  24.660
1126.72  37.821  24.721
1127.22  37.693  24.690
1127.72  37.757  24.721
1128.22  37.757  24.690
1128.72  37.757  24.721
1129.22  37.757  24.721
1129.72  37.693  24.690
1130.22  37.757  24.690
1130.72  37.757  24.721
1131.22  37.757  24.690
1131.72  37.821  24.752
1132.22  37.693  24.690
1132.72  37.885  24.690
1133.22  37.693  24.721
1133.72  37.821  24.660
1134.22  37.885  24.721
1134.72  37.757  24.690
1135.22  37.757  24.690
1135.72  37.757  24.690
1136.22  37.757  24.660
1136.72  37.757  24.752
1137.22  37.757  24.690
1137.72  37.757  24.690
1138.22  37.757  24.660
1138.72  37.757  24.690
1139.22  37.757  24.660
1139.72  37.693  24.721
1140.22  37.821  24.721
1140.72  37.821  24.690
1141.22  37.757  24.690
1141.72  37.757  24.690
1142.22  37.757  24.690
1142.72  37.757  24.690
1143.22  37.821  24.690
1143.72  37.757  24.690
1144.22  37.693  24.660
1144.72  37.757  24.721
1145.22  37.757  24.690
1145.72  37.757  24.690
1146.22  37.757  24.660
1146.72  37.821  24.690
1147.22  37.821  24.690
1147.72  37.757  24.721
1148.22  37.821  24.660
1148.72  37.757  24.629
1149.22  37.821  24.690
1149.72  37.757  24.690
1150.22  37.757  24.629
1150.72  37.821  24.690
1151.22  37.885  24.690
1151.72  37.757  24.660
1152.22  37.821  24.721
1152.72  37.757  24.721
1153.22  37.821  24.690
1153.72  37.821  24.721
1154.22  37.821  24.690
1154.72  37.757  24.660
1155.22  37.885  24.690
1155.72  37.757  24.721
1156.22  37.629  24.690
1156.72  37.757  24.660
1157.22  37.757  24.660
1157.72  37.757  24.721
1158.22  37.757  24.690
1158.72  37.821  24.690
1159.22  37.757  24.721
1159.72  37.757  24.660
1160.22  37.757  24.660
1160.72  37.821  24.690
1161.22  37.757  24.690
1161.72  37.757  24.690
1162.22  37.693  24.690
1162.72  37.821  24.690
1163.22  37.821  24.721
1163.72  37.629  24.721
1164.22  37.757  24.690
1164.72  37.757  24.690
1165.22  37.821  24.690
1165.72  37.757  24.690
1166.22  37.949  24.690
1166.72  37.821  24.690
1167.22  37.757  24.660
1167.72  37.821  24.721
1168.22  37.821  24.660
1168.72  37.821  24.690
1169.22  37.821  24.690
1169.72  37.757  24.690
1170.22  37.821  24.690
1170.72  37.821  24.690
1171.22  37.949  24.690
1171.72  37.885  24.690
1172.22  37.757  24.660
1172.72  37.821  24.690
1173.22  37.821  24.690
1173.72  37.821  24.660
1174.22  37.821  24.690
1174.72  37.757  24.690
1175.22  37.821  24.690
1175.72  37.757  24.690
1176.22  37.821  24.690
1176.72  37.821  24.690
1177.22  37.757  24.660
1177.72  37.821  24.690
1178.22  37.821  24.660
1178.72  37.885  24.660
1179.22  37.821  24.690
1179.72  37.821  24.690
1180.22  37.885  24.721
1180.72  37.821  24.690
1181.23  37.821  24.721
1181.73  37.821  24.660
1182.23  37.821  24.690
1182.73  37.821  24.721
1183.23  37.885  24.660
1183.73  37.821  24.690
1184.23  37.821  24.660
1184.73  37.821  24.690
1185.23  37.885  24.660
1185.73  37.821  24.721
1186.23  37.757  24.690
1186.73  37.821  24.721
1187.23  37.821  24.690
1187.73  37.885  24.629
1188.23  37.885  24.690
1188.73  37.885  24.660
1189.23  37.821  24.690
1189.73  37.821  24.721
1190.23  37.821  24.660
1190.73  37.821  24.690
1191.23  37.821  24.721
1191.73  37.885  24.690
1192.23  37.821  24.660
1192.73  37.885  24.721
1193.23  37.885  24.690
1193.73  37.885  24.690
1194.23  37.885  24.660
1194.73  37.885  24.660
1195.23  37.821  24.721
1195.73  37.821  24.690
1196.23  37.885  24.690
1196.73  37.885  24.660
1197.23  37.821  24.721
1197.73  37.821  24.690
1198.23  37.949  24.690
1198.73  37.885  24.721
1199.23  37.885  24.721
1199.73  37.821  24.690
1200.23  37.885  24.690
1200.73  37.821  24.690
1201.23  37.885  24.690
1201.73  37.885  24.690
1202.23  37.885  24.690
1202.73  37.821  24.690
1203.23  37.885  24.721
1203.73  37.821  24.660
1204.23  37.821  24.690
1204.73  37.821  24.660
1205.23  37.885  24.690
1205.73  37.949  24.660
1206.23  38.013  24.660
1206.73  37.885  24.629
1207.23  37.821  24.721
1207.73  37.885  24.721
1208.23  37.885  24.660
1208.73  37.885  24.721
1209.23  37.949  24.721
1209.73  37.821  24.721
1210.23  37.885  24.721
1210.73  37.885  24.721
1211.23  37.885  24.690
1211.73  37.949  24.690
1212.23  38.077  24.690
1212.73  37.885  24.660
1213.23  37.949  24.690
1213.73  37.885  24.660
1214.23  37.885  24.690
1214.73  37.949  24.690
1215.23  37.885  24.690
1215.73  37.885  24.690
1216.23  37.885  24.660
1216.73  37.885  24.690
1217.23  37.885  24.690
1217.73  37.885  24.690
1218.23  37.885  24.690
1218.73  37.885  24.690
1219.23  37.885  24.690
1219.73  37.885  24.690
1220.23  37.885  24.721
1220.73  37.949  24.721
1221.23  37.885  24.690
1221.73  37.949  24.690
1222.23  38.013  24.721
1222.73  37.949  24.660
1223.23  37.885  24.690
1223.73  37.949  24.690
1224.23  37.949  24.690
1224.73  37.821  24.690
1225.23  37.949  24.690
1225.73  37.885  24.721
1226.23  37.949  24.660
1226.73  37.821  24.690
1227.23  37.949  24.690
1227.73  37.949  24.721
1228.23  37.885  24.783
1228.73  37.949  24.690
1229.23  37.949  24.690
1229.73  37.949  24.721
1230.23  37.885  24.690
1230.73  37.949  24.690
1231.23  37.885  24.690
1231.73  37.949  24.690
1232.23  37.821  24.721
1232.73  37.885  24.660
1233.23  37.885  24.690
1233.73  37.949  24.690
1234.23  37.949  24.690
1234.73  37.949  24.690
1235.23  37.885  24.690
1235.73  37.949  24.752
1236.23  37.885  24.629
1236.73  37.885  24.721
1237.23  37.885  24.690
1237.73  37.885  24.721
1238.23  37.885  24.721
1238.73  37.821  24.660
1239.23  37.885  24.690
1239.73  37.885  24.721
1240.23  37.949  24.690
1240.73  37.885  24.690
1241.23  37.885  24.660
1241.73  37.885  24.660
1242.23  37.949  24.690
1242.73  37.949  24.690
1243.23  37.821  24.660
1243.73  38.013  24.690
1244.23  37.949  24.660
1244.73  37.949  24.660
1245.23  37.885  24.690
1245.73  37.949  24.690
1246.23  37.949  24.629
1246.73  37.949  24.660
1247.23  37.885  24.660
1247.73  38.013  24.690
1248.23  37.949  24.721
1248.73  37.885  24.660
1249.23  37.949  24.690
1249.73  37.949  24.690
1250.23  37.949  24.690
1250.73  37.885  24.721
1251.23  37.885  24.660
1251.73  37.885  24.660
1252.23  37.949  24.660
1252.73  37.885  24.721
1253.23  37.949  24.690
1253.73  37.949  24.752
1254.23  37.885  24.660
1254.73  37.885  24.690
1255.23  37.885  24.690
1255.73  37.885  24.690
1256.23  37.885  24.660
1256.73  37.885  24.721
1257.23  37.885  24.660
1257.73  37.949  24.690
1258.23  37.949  24.690
1258.73  38.013  24.660
1259.23  37.885  24.690
1259.73  38.013  24.629
1260.23  37.949  24.721
1260.73  37.949  24.690
1261.23  37.949  24.690
1261.73  37.949  24.690
1262.23  37.949  24.690
1262.73  37.949  24.660
1263.23  38.013  24.690
1263.73  37.949  24.690
1264.23  37.949  24.690
1264.73  37.949  24.690
1265.23  37.949  24.690
1265.73  37.949  24.690
1266.23  37.885  24.660
1266.73  38.013  24.660
1267.23  37.949  24.690
1267.73  37.949  24.721
1268.23  37.885  24.752
1268.73  37.949  24.660
1269.23  37.949  24.660
1269.73  37.885  24.690
1270.23  37.949  24.690
1270.73  37.949  24.690
1271.23  37.949  24.690
1271.73  37.949  24.690
1272.23  37.949  24.660
1272.73  37.949  24.690
1273.23  37.949  24.629
1273.73  37.949  24.690
1274.23  38.013  24.690
1274.73  38.013  24.660
1275.23  37.949  24.629
1275.73  37.949  24.660
1276.23  38.013  24.660
1276.73  37.885  24.690
1277.23  37.949  24.690
1277.73  37.949  24.660
1278.23  37.949  24.690
1278.73  38.013  24.690
1279.23  37.949  24.660
1279.73  37.885  24.690
1280.23  37.949  24.690
1280.73  37.949  24.660
1281.23  37.949  24.721
1281.73  37.949  24.690
1282.23  38.013  24.660
1282.73  38.013  24.690
1283.23  37.949  24.690
1283.73  38.013  24.690
1284.23  37.949  24.690
1284.73  38.013  24.690
1285.23  38.013  24.690
1285.73  37.885  24.721
1286.23  38.013  24.690
1286.73  37.949  24.690
1287.23  38.013  24.690
1287.73  37.949  24.690
1288.23  37.949  24.690
1288.73  37.949  24.660
1289.23  37.949  24.660
1289.73  37.949  24.690
1290.23  38.013  24.690
1290.73  37.949  24.690
1291.23  38.013  24.660
1291.73  38.013  24.690
1292.23  38.013  24.721
1292.73  38.013  24.690
1293.23  38.013  24.690
1293.73  37.949  24.690
1294.24  38.141  24.721
1294.74  38.013  24.660
1295.24  38.013  24.690
1295.74  38.013  24.690
1296.24  38.013  24.660
1296.74  37.821  24.660
1297.24  37.949  24.660
1297.74  37.949  24.690
1298.24  38.013  24.690
1298.74  38.013  24.629
1299.24  38.013  24.629
1299.74  37.949  24.660
1300.24  38.013  24.721
1300.74  38.013  24.660
1301.24  38.077  24.660
1301.74  38.013  24.690
1302.24  38.013  24.660
1302.74  38.077  24.721
1303.24  38.013  24.690
1303.74  38.013  24.690
1304.24  37.949  24.721
1304.74  37.885  24.752
1305.24  38.077  24.721
1305.74  38.013  24.690
1306.24  38.013  24.660
1306.74  38.013  24.690
1307.24  38.077  24.660
1307.74  38.013  24.690
1308.24  38.013  24.660
1308.74  38.013  24.660
1309.24  38.077  24.660
1309.74  38.013  24.690
1310.24  38.013  24.690
1310.74  38.013  24.660
1311.24  38.013  24.690
1311.74  38.013  24.690
1312.24  37.885  24.690
1312.74  38.013  24.629
1313.24  38.013  24.690
1313.74  38.077  24.660
1314.24  38.077  24.690
1314.74  37.949  24.660
1315.24  38.077  24.660
1315.74  38.013  24.660
1316.24  38.013  24.690
1316.74  38.013  24.660
1317.24  38.013  24.629
1317.74  38.077  24.660
1318.24  38.077  24.690
1318.74  38.077  24.690
1319.24  38.077  24.690
1319.74  38.013  24.690
1320.24  38.013  24.660
1320.74  38.013  24.660
1321.24  38.013  24.690
1321.74  38.077  24.660
1322.24  38.013  24.660
1322.74  38.013  24.690
1323.24  38.077  24.690
1323.74  38.013  24.690
1324.24  38.077  24.690
1324.74  38.077  24.660
1325.24  38.077  24.721
1325.74  38.013  24.690
1326.24  38.077  24.690
1326.74  38.077  24.690
1327.24  38.013  24.690
1327.74  38.141  24.721
1328.24  38.013  24.690
1328.74  38.013  24.660
1329.24  38.141  24.660
1329.74  38.013  24.690
1330.24  38.013  24.660
1330.74  38.013  24.690
1331.24  38.077  24.690
1331.74  38.013  24.690
1332.24  38.077  24.690
1332.74  38.077  24.690
1333.24  38.077  24.690
1333.74  38.013  24.660
1334.24  38.077  24.690
1334.74  38.077  24.690
1335.24  38.013  24.690
1335.74  38.077  24.721
1336.24  38.077  24.690
1336.74  37.949  24.690
1337.24  38.141  24.690
1337.74  38.077  24.690
1338.24  38.077  24.660
1338.74  38.013  24.690
1339.24  38.077  24.690
1339.74  38.013  24.690
1340.24  38.013  24.660
1340.74  38.013  24.690
1341.24  38.077  24.690
1341.74  38.013  24.721
1342.24  38.077  24.690
1342.74  38.013  24.690
1343.24  38.269  24.721
1343.74  38.013  24.660
1344.24  38.077  24.690
1344.74  37.885  24.690
1345.24  38.013  24.660
1345.74  38.077  24.660
1346.24  38.077  24.660
1346.74  38.013  24.660
1347.24  38.077  24.660
1347.74  38.077  24.660
1348.24  38.013  24.660
1348.74  38.013  24.690
1349.24  38.077  24.660
1349.74  38.077  24.690
1350.24  38.077  24.690
1350.74  38.077  24.690
1351.24  38.077  24.721
1351.74  38.141  24.690
1352.24  38.269  24.660
1352.74  38.077  24.721
1353.24  38.077  24.690
1353.74  37.949  24.690
1354.24  38.077  24.783
1354.74  38.077  24.690
1355.24  38.013  24.690
1355.74  38.077  24.629
1356.24  38.077  24.690
1356.74  38.013  24.660
1357.24  38.077  24.660
1357.74  38.077  24.690
1358.24  38.141  24.629
1358.74  38.077  24.660
1359.24  38.141  24.629
1359.74  38.141  24.660
1360.24  38.077  24.690
1360.74  37.949  24.721
1361.24  38.205  24.660
1361.74  38.077  24.721
1362.24  38.077  24.660
1362.74  38.077  24.660
1363.24  38.397  24.690
1363.74  38.077  24.660
1364.24  38.141  24.660
1364.74  38.013  24.690
1365.24  38.077  24.690
1365.74  38.077  24.690
1366.24  38.077  24.629
1366.74  38.077  24.660
1367.24  38.141  24.690
1367.74  38.077  24.629
1368.24  38.013  24.660
1368.74  38.077  24.690
1369.24  38.077  24.660
1369.74  38.141  24.660
1370.24  38.077  24.690
1370.74  38.077  24.690
1371.24  38.077  24.660
1371.74  38.077  24.690
1372.24  38.077  24.721
1372.74  38.141  24.629
1373.24  38.077  24.660
1373.74  38.077  24.660
1374.24  38.141  24.690
1374.74  38.077  24.690
1375.24  38.077  24.660
1375.74  38.077  24.660
1376.24  38.205  24.660
1376.74  38.077  24.629
1377.24  38.077  24.721
1377.74  38.141  24.660
1378.24  38.077  24.660
1378.74  38.077  24.690
1379.24  38.077  24.660
1379.74  38.141  24.690
1380.24  38.141  24.690
1380.74  38.077  24.629
1381.24  38.141  24.660
1381.74  38.077  24.690
1382.24  38.013  24.660
1382.74  38.141  24.629
1383.24  38.077  24.690
1383.74  38.077  24.690
1384.24  37.949  24.660
1384.74  38.077  24.660
1385.24  38.077  24.660
1385.74  38.077  24.660
1386.24  38.141  24.690
1386.74  38.013  24.660
1387.24  38.141  24.690
1387.74  38.077  24.660
1388.24  38.077  24.660
1388.74  38.077  24.660
1389.24  38.077  24.660
1389.74  38.077  24.629
1390.24  38.077  24.660
1390.74  38.077  24.660
1391.24  38.077  24.690
1391.74  38.141  24.690
1392.24  38.141  24.660
1392.74  38.077  24.660
1393.24  38.077  24.660
1393.74  38.077  24.660
1394.24  38.077  24.629
1394.74  38.141  24.629
1395.24  38.077  24.690
1395.74  37.949  24.690
1396.24  38.077  24.690
1396.74  38.141  24.660
1397.24  38.141  24.660
1397.74  38.077  24.660
1398.24  38.141  24.660
1398.74  38.205  24.660
1399.24  38.141  24.660
1399.74  38.141  24.660
1400.24  38.077  24.752
1400.74  38.077  24.660
1401.24  38.141  24.690
1401.74  38.077  24.690
1402.24  38.077  24.660
1402.74  38.077  24.660
1403.24  38.141  24.690
1403.74  38.141  24.660
1404.24  38.141  24.690
1404.74  38.141  24.660
1405.24  38.141  24.690
1405.74  38.141  24.660
1406.24  38.205  24.690
1406.74  38.141  24.660
1407.25  38.205  24.690
1407.75  38.077  24.629
1408.25  38.141  24.721
1408.75  38.205  24.690
1409.25  38.141  24.690
1409.75  38.141  24.690
1410.25  38.141  24.690
1410.75  38.141  24.752
1411.25  38.141  24.690
1411.75  38.141  24.690
1412.25  38.141  24.629
1412.75  38.141  24.690
1413.25  38.141  24.690
1413.75  38.141  24.690
1414.25  38.205  24.690
1414.75  38.141  24.660
1415.25  38.141  24.660
1415.75  38.205  24.690
1416.25  38.141  24.690
1416.75  38.141  24.721
1417.25  38.269  24.660
1417.75  38.141  24.690
1418.25  38.141  24.660
1418.75  38.141  24.660
1419.25  38.141  24.690
1419.75  38.205  24.690
1420.25  38.141  24.660
1420.75  38.141  24.690
1421.25  38.205  24.752
1421.75  38.141  24.660
1422.25  38.141  24.660
1422.75  38.205  24.690
1423.25  38.269  24.690
1423.75  38.013  24.690
1424.25  38.077  24.690
1424.75  38.141  24.690
1425.25  38.205  24.629
1425.75  38.205  24.690
1426.25  38.205  24.690
1426.75  38.205  24.690
1427.25  38.205  24.660
1427.75  38.205  24.690
1428.25  38.077  24.690
1428.75  38.141  24.660
1429.25  38.141  24.721
1429.75  38.205  24.690
1430.25  38.077  24.660
1430.75  38.205  24.690
1431.25  38.141  24.690
1431.75  38.141  24.660
1432.25  38.141  24.660
1432.75  38.141  24.690
1433.25  38.141  24.660
1433.75  38.141  24.660
1434.25  38.141  24.660
1434.75  38.141  24.660
1435.25  38.141  24.690
1435.75  38.141  24.690
1436.25  38.205  24.690
1436.75  38.205  24.690
1437.25  38.077  24.660
1437.75  38.205  24.690
1438.25  38.205  24.660
1438.75  38.205  24.660
1439.25  38.141  24.721
1439.75  38.205  24.660
1440.25  38.141  24.690
1440.75  38.141  24.660
1441.25  38.205  24.660
1441.75  38.205  24.660
1442.25  38.205  24.690
1442.75  38.141  24.721
1443.25  38.205  24.629
1443.75  38.205  24.690
1444.25  38.205  24.690
1444.75  38.205  24.660
1445.25  38.205  24.660
1445.75  38.141  24.660
1446.25  38.141  24.690
1446.75  38.205  24.660
1447.25  38.077  24.660
1447.75  38.205  24.690
1448.25  38.141  24.660
1448.75  38.269  24.690
1449.25  38.141  24.690
1449.75  38.205  24.690
1450.25  38.205  24.690
1450.75  38.141  24.721
1451.25  38.205  24.660
1451.75  38.205  24.690
1452.25  38.269  24.690
1452.75  38.205  24.660
1453.25  38.269  24.660
1453.75  38.205  24.690
1454.25  38.269  24.660
1454.75  38.141  24.660
1455.25  38.269  24.660
1455.75  38.269  24.660
1456.25  38.269  24.660
1456.75  38.141  24.660
1457.25  38.205  24.660
1457.75  38.205  24.721
1458.25  38.269  24.690
1458.75  38.205  24.660
1459.25  38.205  24.660
1459.75  38.141  24.690
1460.25  38.205  24.660
1460.75  38.205  24.660
1461.25  38.205  24.660
1461.75  38.205  24.660
1462.25  38.269  24.660
1462.75  38.141  24.690
1463.25  38.269  24.721
1463.75  38.205  24.660
1464.25  38.205  24.660
1464.75  38.205  24.690
1465.25  38.205  24.690
1465.75  38.205  24.690
1466.25  38.205  24.690
1466.75  38.205  24.721
1467.25  38.205  24.660
1467.75  38.205  24.690
1468.25  38.205  24.660
1468.75  38.205  24.690
1469.25  38.205  24.660
1469.75  38.269  24.660
1470.25  38.141  24.690
1470.75  38.269  24.690
1471.25  38.141  24.660
1471.75  38.205  24.660
1472.25  38.205  24.690
1472.75  38.205  24.721
1473.25  38.205  24.690
1473.75  38.205  24.690
1474.25  38.269  24.660
1474.75  38.205  24.690
1475.25  38.269  24.690
1475.75  38.269  24.690
1476.25  38.205  24.721
1476.75  38.205  24.660
1477.25  38.205  24.752
1477.75  38.205  24.660
1478.25  38.205  24.660
1478.75  38.269  24.660
1479.25  38.205  24.660
1479.75  38.205  24.660
1480.25  38.141  24.690
1480.75  38.205  24.690
1481.25  38.269  24.629
1481.75  38.205  24.629
1482.25  38.269  24.690
1482.75  38.205  24.660
1483.25  38.205  24.690
1483.75  38.269  24.660
1484.25  38.141  24.690
1484.75  38.269  24.690
1485.25  38.205  24.660
1485.75  38.141  24.660
1486.25  38.205  24.660
1486.75  38.205  24.690
1487.25  38.205  24.660
1487.75  38.205  24.690
1488.25  38.205  24.690
1488.75  38.269  24.690
1489.25  38.205  24.690
1489.75  38.333  24.660
1490.25  38.269  24.660
1490.75  38.205  24.690
1491.25  38.205  24.690
1491.75  38.269  24.690
1492.25  38.333  24.660
1492.75  38.269  24.660
1493.25  38.269  24.660
1493.75  38.269  24.629
1494.25  38.269  24.660
1494.75  38.269  24.690
1495.25  38.269  24.690
1495.75  38.333  24.629
1496.25  38.269  24.690
1496.75  38.205  24.629
1497.25  38.269  24.690
1497.75  38.269  24.690
1498.25  38.269  24.690
1498.75  38.269  24.660
1499.25  38.269  24.660
1499.75  38.269  24.690
1500.25  38.333  24.690
1500.75  38.205  24.690
1501.25  38.269  24.660
1501.75  38.269  24.660
1502.25  38.205  24.690
1502.75  38.333  24.660
1503.25  38.269  24.660
1503.75  38.269  24.629
1504.25  38.269  24.660
1504.75  38.205  24.660
1505.25  38.205  24.660
1505.75  38.269  24.690
1506.25  38.205  24.690
1506.75  38.333  24.660
1507.25  38.269  24.660
1507.75  38.269  24.660
1508.25  38.269  24.660
1508.75  38.269  24.660
1509.25  38.269  24.660
1509.76  38.269  24.660
1510.26  38.269  24.690
1510.76  38.269  24.660
1511.26  38.333  24.660
1511.76  38.269  24.690
1512.26  38.141  24.629
1512.76  38.205  24.690
1513.26  38.269  24.660
1513.76  38.269  24.690
1514.26  38.333  24.660
1514.76  38.269  24.660
1515.26  38.333  24.660
1515.76  38.461  24.690
1516.26  38.205  24.690
1516.76  38.269  24.690
1517.26  38.333  24.690
1517.76  38.333  24.660
1518.26  38.269  24.660
1518.76  38.141  24.660
1519.26  38.205  24.660
1519.76  38.205  24.629
1520.26  38.269  24.629
1520.76  38.269  24.660
1521.26  38.269  24.690
1521.76  38.269  24.660
1522.26  38.269  24.690
1522.76  38.269  24.660
1523.26  38.205  24.629
1523.76  38.269  24.690
1524.26  38.269  24.660
1524.76  38.205  24.660
1525.26  38.269  24.660
1525.76  38.269  24.629
1526.26  38.333  24.660
1526.76  38.269  24.690
1527.26  38.269  24.660
1527.76  38.333  24.629
1528.26  38.269  24.660
1528.76  38.269  24.660
1529.26  38.333  24.690
1529.76  38.333  24.690
1530.26  38.269  24.660
1530.76  38.333  24.660
1531.26  38.333  24.660
1531.76  38.333  24.690
1532.26  38.269  24.629
1532.76  38.269  24.660
1533.26  38.333  24.690
1533.76  38.333  24.690
1534.26  38.205  24.660
1534.76  38.205  24.721
1535.26  38.269  24.660
1535.76  38.269  24.660
1536.26  38.333  24.690
1536.76  38.333  24.629
1537.26  38.269  24.629
1537.76  38.333  24.629
1538.26  38.269  24.660
1538.76  38.333  24.690
1539.26  38.333  24.660
1539.76  38.269  24.660
1540.26  38.269  24.660
1540.76  38.333  24.690
1541.26  38.333  24.690
1541.76  38.333  24.721
1542.26  38.333  24.660
1542.76  38.333  24.690
1543.26  38.205  24.660
1543.76  38.269  24.660
1544.26  38.333  24.721
1544.76  38.269  24.690
1545.26  38.269  24.660
1545.76  38.333  24.721
1546.26  38.269  24.660
1546.76  38.269  24.660
1547.26  38.333  24.660
1547.76  38.333  24.690
1548.26  38.333  24.660
1548.76  38.333  24.752
1549.26  38.333  24.629
1549.76  38.333  24.660
1550.26  38.269  24.629
1550.76  38.333  24.629
1551.26  38.333  24.660
1551.76  38.333  24.690
1552.26  38.333  24.690
1552.76  38.333  24.690
1553.26  38.269  24.660
1553.76  38.333  24.690
1554.26  38.333  24.660
1554.76  38.269  24.660
1555.26  38.333  24.660
1555.76  38.333  24.660
1556.26  38.333  24.660
1556.76  38.333  24.598
1557.26  38.333  24.629
1557.76  38.269  24.660
1558.26  38.269  24.660
1558.76  38.141  24.660
1559.26  38.333  24.660
1559.76  38.269  24.721
1560.26  38.333  24.629
1560.76  38.333  24.660
1561.26  38.269  24.660
1561.76  38.333  24.660
1562.26  38.333  24.660
1562.76  38.333  24.690
1563.26  38.269  24.660
1563.76  38.333  24.690
1564.26  38.397  24.660
1564.76  38.333  24.660
1565.26  38.269  24.660
1565.76  38.333  24.598
1566.26  38.269  24.660
1566.76  38.333  24.660
1567.26  38.269  24.660
1567.76  38.333  24.660
1568.26  38.333  24.660
1568.76  38.333  24.660
1569.26  38.333  24.629
1569.76  38.397  24.690
1570.26  38.333  24.660
1570.76  38.397  24.660
1571.26  38.397  24.660
1571.76  38.269  24.690
1572.26  38.333  24.660
1572.76  38.269  24.660
1573.26  38.269  24.629
1573.76  38.333  24.660
1574.26  38.333  24.629
1574.76  38.333  24.660
1575.26  38.269  24.629
1575.76  38.333  24.690
1576.26  38.333  24.660
1576.76  38.269  24.660
1577.26  38.333  24.660
1577.76  38.397  24.660
1578.26  38.333  24.629
1578.76  38.333  24.629
1579.26  38.397  24.660
1579.76  38.333  24.660
1580.26  38.269  24.690
1580.76  38.333  24.660
1581.26  38.333  24.660
1581.76  38.589  24.660
1582.26  38.333  24.660
1582.76  38.333  24.721
1583.26  38.397  24.629
1583.76  38.397  24.660
1584.26  38.333  24.660
1584.76  38.397  24.721
1585.26  38.397  24.660
1585.76  38.333  24.660
1586.26  38.397  24.660
1586.76  38.333  24.660
1587.26  38.397  24.752
1587.76  38.333  24.660
1588.26  38.397  24.690
1588.76  38.333  24.660
1589.26  38.333  24.690
1589.76  38.397  24.660
1590.26  38.397  24.660
1590.76  38.397  24.660
1591.26  38.397  24.690
1591.76  38.397  24.629
1592.26  38.333  24.660
1592.76  38.333  24.660
1593.26  38.397  24.660
1593.76  38.333  24.721
1594.26  38.461  24.660
1594.76  38.397  24.660
1595.26  38.461  24.598
1595.76  38.333  24.690
1596.26  38.397  24.690
1596.76  38.397  24.660
1597.26  38.397  24.690
1597.76  38.461  24.660
1598.26  38.397  24.660
1598.76  38.461  24.660
1599.26  38.397  24.660
1599.76  38.397  24.660
1600.26  38.525  24.660
1600.76  38.525  24.721
1601.26  38.525  24.660
1601.76  38.589  24.660
1602.26  38.461  24.660
1602.76  38.525  24.629
1603.26  38.525  24.660
1603.76  38.525  24.660
1604.26  38.589  24.721
1604.76  38.525  24.629
1605.26  38.525  24.660
1605.76  38.589  24.690
1606.26  38.589  24.629
1606.76  38.589  24.660
1607.26  38.589  24.660
1607.76  38.589  24.629
1608.26  38.525  24.629
1608.76  38.589  24.660
1609.26  38.589  24.629
1609.76  38.589  24.660
1610.26  38.653  24.660
1610.76  38.589  24.660
1611.26  38.589  24.660
1611.76  38.525  24.660
1612.26  38.717  24.629
1612.76  38.589  24.660
1613.26  38.653  24.660
1613.76  38.589  24.660
1614.26  38.589  24.660
1614.76  38.589  24.690
1615.26  38.589  24.629
1615.76  38.653  24.660
1616.26  38.653  24.690
1616.76  38.589  24.660
1617.26  38.589  24.629
1617.76  38.653  24.660
1618.26  38.653  24.690
1618.76  38.589  24.629
1619.26  38.653  24.690
1619.76  38.589  24.660
1620.26  38.653  24.660
1620.76  38.653  24.690
1621.26  38.653  24.660
1621.76  38.653  24.690
1622.26  38.653  24.660
1622.77  38.653  24.690
1623.27  38.589  24.629
1623.77  38.589  24.660
1624.27  38.589  24.660
1624.77  38.653  24.660
1625.27  38.653  24.690
1625.77  38.653  24.660
1626.27  38.653  24.660
1626.77  38.653  24.721
1627.27  38.653  24.690
1627.77  38.653  24.660
1628.27  38.653  24.629
1628.77  38.589  24.660
1629.27  38.653  24.660
1629.77  38.653  24.660
1630.27  38.589  24.629
1630.77  38.653  24.660
1631.27  38.653  24.690
1631.77  38.653  24.660
1632.27  38.653  24.660
1632.77  38.717  24.629
1633.27  38.653  24.721
1633.77  38.653  24.660
1634.27  38.653  24.690
1634.77  38.589  24.660
1635.27  38.653  24.660
1635.77  38.653  24.690
1636.27  38.653  24.660
1636.77  38.589  24.660
1637.27  38.653  24.660
1637.77  38.589  24.660
1638.27  38.653  24.660
1638.77  38.717  24.629
1639.27  38.653  24.660
1639.77  38.653  24.629
1640.27  38.653  24.629
1640.77  38.589  24.660
1641.27  38.589  24.629
1641.77  38.653  24.660
1642.27  38.653  24.690
1642.77  38.653  24.629
1643.27  38.653  24.660
1643.77  38.653  24.690
1644.27  38.653  24.660
1644.77  38.717  24.660
1645.27  38.653  24.660
1645.77  38.653  24.660
1646.27  38.717  24.629
1646.77  38.653  24.660
1647.27  38.653  24.629
1647.77  38.653  24.690
1648.27  38.653  24.629
1648.77  38.653  24.660
1649.27  38.653  24.629
1649.77  38.653  24.660
1650.27  38.653  24.690
1650.77  38.717  24.660
1651.27  38.653  24.660
1651.77  38.717  24.660
1652.27  38.717  24.629
1652.77  38.653  24.660
1653.27  38.653  24.629
1653.77  38.653  24.721
1654.27  38.653  24.690
1654.77  38.653  24.660
1655.27  38.653  24.690
1655.77  38.653  24.660
1656.27  38.717  24.660
1656.77  38.589  24.660
1657.27  38.653  24.690
1657.77  38.717  24.629
1658.27  38.717  24.690
1658.77  38.717  24.629
1659.27  38.653  24.690
1659.77  38.653  24.660
1660.27  38.653  24.629
1660.77  38.653  24.660
1661.27  38.717  24.660
1661.77  38.781  24.660
1662.27  38.717  24.660
1662.77  38.653  24.660
1663.27  38.653  24.660
1663.77  38.717  24.629
1664.27  38.717  24.629
1664.77  38.717  24.660
1665.27  38.653  24.660
1665.77  38.653  24.690
1666.27  38.653  24.629
1666.77  38.589  24.660
1667.27  38.653  24.660
1667.77  38.717  24.660
1668.27  38.653  24.629
1668.77  38.653  24.690
1669.27  38.781  24.660
1669.77  38.717  24.660
1670.27  38.717  24.660
1670.77  38.717  24.660
1671.27  38.717  24.660
1671.77  38.653  24.690
1672.27  38.653  24.660
1672.77  38.717  24.660
1673.27  38.717  24.660
1673.77  38.653  24.660
1674.27  38.717  24.660
1674.77  38.717  24.660
1675.27  38.717  24.721
1675.77  38.717  24.629
1676.27  38.589  24.598
1676.77  38.717  24.660
1677.27  38.717  24.660
1677.77  38.717  24.690
1678.27  38.717  24.660
1678.77  38.653  24.660
1679.27  38.717  24.660
1679.77  38.717  24.660
1680.27  38.717  24.660
1680.77  38.717  24.660
1681.27  38.717  24.660
1681.77  38.781  24.690
1682.27  38.653  24.690
1682.77  38.653  24.690
1683.27  38.717  24.690
1683.77  38.717  24.752
1684.27  38.845  24.660
1684.77  38.717  24.690
1685.27  38.781  24.629
1685.77  38.717  24.660
1686.27  38.717  24.690
1686.77  38.781  24.660
1687.27  38.781  24.629
1687.77  38.717  24.690
1688.27  38.653  24.629
1688.77  38.717  24.690
1689.27  38.717  24.690
1689.77  38.717  24.660
1690.27  38.717  24.660
1690.77  38.717  24.690
1691.27  38.781  24.660
1691.77  38.717  24.660
1692.27  38.717  24.660
1692.77  38.717  24.690
1693.27  38.717  24.690
1693.77  38.781  24.690
1694.27  38.781  24.660
1694.77  38.717  24.660
1695.27  38.717  24.660
1695.77  38.781  24.660
1696.27  38.717  24.660
1696.77  38.717  24.660
1697.27  38.781  24.690
1697.77  38.717  24.660
1698.27  38.717  24.660
1698.77  38.781  24.629
1699.27  38.717  24.660
1699.77  38.717  24.660
1700.27  38.845  24.660
1700.77  38.717  24.660
1701.27  38.717  24.660
1701.77  38.717  24.660
1702.27  38.717  24.629
1702.77  38.717  24.660
1703.27  38.717  24.660
1703.77  38.717  24.660
1704.27  38.717  24.629
1704.77  38.781  24.660
1705.27  38.717  24.690
1705.77  38.717  24.660
1706.27  38.717  24.660
1706.77  38.717  24.660
1707.27  38.717  24.660
1707.77  38.781  24.690
1708.27  38.781  24.690
1708.77  38.717  24.629
1709.27  38.717  24.660
1709.77  38.781  24.660
1710.27  38.781  24.660
1710.77  38.781  24.660
1711.27  38.781  24.629
1711.77  38.781  24.660
1712.27  38.717  24.690
1712.77  38.781  24.629
1713.27  38.717  24.752
1713.77  38.717  24.690
1714.27  38.717  24.660
1714.77  38.717  24.660
1715.27  38.717  24.629
1715.77  38.717  24.629
1716.27  38.717  24.660
1716.77  38.781  24.690
1717.27  38.781  24.660
1717.77  38.781  24.660
1718.27  38.717  24.690
1718.77  38.717  24.660
1719.27  38.845  24.629
1719.77  38.653  24.660
1720.27  38.781  24.660
1720.77  38.781  24.660
1721.27  38.781  24.690
1721.77  38.845  24.660
1722.27  38.781  24.690
1722.77  38.781  24.690
1723.27  38.781  24.598
1723.77  38.781  24.690
1724.27  38.781  24.690
1724.77  38.781  24.690
1725.27  38.781  24.660
1725.77  38.781  24.660
1726.27  38.781  24.690
1726.77  38.717  24.660
1727.27  38.781  24.690
1727.77  38.781  24.660
1728.27  38.781  24.629
1728.77  38.781  24.660
1729.27  38.781  24.660
1729.77  38.781  24.690
1730.27  38.781  24.690
1730.77  38.909  24.660
1731.27  38.717  24.660
1731.77  38.781  24.690
1732.27  38.845  24.629
1732.77  38.781  24.660
1733.27  38.781  24.660
1733.77  38.781  24.629
1734.27  38.781  24.629
1734.77  38.845  24.660
1735.27  38.781  24.660
1735.77  38.717  24.752
1736.28  38.845  24.660
1736.78  38.717  24.660
1737.28  38.717  24.660
1737.78  38.845  24.660
1738.28  38.845  24.660
1738.78  38.781  24.629
1739.28  38.845  24.660
1739.78  38.781  24.660
1740.28  38.781  24.690
1740.78  38.781  24.660
1741.28  38.781  24.660
1741.78  38.781  24.721
1742.28  38.781  24.690
1742.78  38.717  24.660
1743.28  38.781  24.660
1743.78  38.845  24.629
1744.28  38.781  24.660
1744.78  38.845  24.660
1745.28  38.781  24.660
1745.78  38.781  24.690
1746.28  38.845  24.721
1746.78  38.781  24.660
1747.28  38.717  24.660
1747.78  38.781  24.660
1748.28  38.781  24.660
1748.78  38.845  24.660
1749.28  38.845  24.690
1749.78  38.845  24.660
1750.28  38.781  24.660
1750.78  38.845  24.629
1751.28  38.781  24.660
1751.78  38.717  24.660
1752.28  38.781  24.660
1752.78  38.845  24.660
1753.28  38.781  24.660
1753.78  38.845  24.629
1754.28  38.845  24.690
1754.78  38.845  24.660
1755.28  38.717  24.690
1755.78  38.781  24.660
1756.28  38.845  24.660
1756.78  38.781  24.660
1757.28  38.781  24.629
1757.78  38.781  24.660
1758.28  38.845  24.629
1758.78  38.781  24.660
1759.28  38.781  24.690
1759.78  38.845  24.660
1760.28  38.845  24.660
1760.78  38.781  24.660
1761.28  38.845  24.629
1761.78  38.845  24.690
1762.28  38.845  24.629
1762.78  38.781  24.690
1763.28  38.845  24.690
1763.78  38.781  24.660
1764.28  38.845  24.660
1764.78  38.909  24.629
1765.28  38.909  24.660
1765.78  38.845  24.660
1766.28  38.781  24.690
1766.78  38.845  24.629
1767.28  38.781  24.721
1767.78  38.909  24.660
1768.28  38.845  24.660
1768.78  38.909  24.660
1769.28  38.845  24.690
1769.78  38.845  24.660
1770.28  38.845  24.690
1770.78  38.781  24.690
1771.28  38.845  24.660
1771.78  38.845  24.660
1772.28  38.845  24.629
1772.78  38.781  24.629
1773.28  38.781  24.690
1773.78  38.845  24.660
1774.28  38.781  24.629
1774.78  38.909  24.660
1775.28  38.845  24.660
1775.78  38.845  24.629
1776.28  38.845  24.721
1776.78  38.845  24.690
1777.28  38.845  24.598
1777.78  38.845  24.660
1778.28  38.909  24.660
1778.78  38.845  24.660
1779.28  38.845  24.660
1779.78  38.845  24.660
1780.28  38.781  24.660
1780.78  38.845  24.629
1781.28  38.717  24.660
1781.78  38.845  24.690
1782.28  38.845  24.690
1782.78  38.845  24.629
1783.28  38.845  24.629
1783.78  38.845  24.660
1784.28  38.845  24.660
1784.78  38.845  24.660
1785.28  38.909  24.660
1785.78  38.781  24.660
1786.28  38.909  24.660
1786.78  38.909  24.660
1787.28  38.845  24.660
1787.78  38.845  24.660
1788.28  38.845  24.660
1788.78  38.845  24.690
1789.28  38.909  24.690
1789.78  38.909  24.629
1790.28  38.845  24.660
1790.78  38.845  24.690
1791.28  38.845  24.690
1791.78  38.845  24.660
1792.28  38.973  24.690
1792.78  38.909  24.660
1793.28  38.845  24.690
1793.78  38.845  24.660
1794.28  38.845  24.660
1794.78  38.781  24.660
1795.28  38.845  24.690
1795.78  38.909  24.660
1796.28  38.909  24.690
1796.78  38.909  24.660
1797.28  38.845  24.690
1797.78  38.845  24.690
1798.28  38.845  24.690
1798.78  38.781  24.660
1799.28  38.845  24.660
1799.78  38.845  24.629
1800.28  38.973  24.660
1800.78  38.845  24.690
1801.28  38.781  24.690
1801.78  38.781  24.629
1802.28  38.845  24.660
1802.78  38.781  24.660
1803.28  38.845  24.690
1803.78  38.909  24.660
1804.28  38.909  24.660
1804.78  38.845  24.690
1805.28  38.909  24.690
1805.78  38.909  24.660
1806.28  38.909  24.660
1806.78  39.037  24.690
1807.28  38.909  24.690
1807.78  38.845  24.660
1808.28  38.909  24.660
1808.78  38.845  24.660
1809.28  38.909  24.598
1809.78  38.845  24.690
1810.28  38.845  24.690
1810.78  38.909  24.721
1811.28  38.845  24.660
1811.78  38.845  24.690
1812.28  38.973  24.660
1812.78  38.845  24.660
1813.28  38.973  24.690
1813.78  38.909  24.690
1814.28  38.973  24.660
1814.78  38.909  24.629
1815.28  38.845  24.690
1815.78  38.973  24.660
1816.28  38.909  24.690
1816.78  38.845  24.690
1817.28  38.845  24.690
1817.78  38.781  24.690
1818.28  38.909  24.660
1818.78  38.845  24.629
1819.28  38.781  24.660
1819.78  38.845  24.660
1820.28  38.909  24.690
1820.78  38.845  24.721
1821.28  38.845  24.660
1821.78  38.909  24.660
1822.28  38.845  24.660
1822.78  38.845  24.690
1823.28  38.909  24.660
1823.78  38.909  24.690
1824.28  38.909  24.660
1824.78  38.909  24.660
1825.28  38.973  24.660
1825.78  38.909  24.690
1826.28  38.909  24.690
1826.78  38.909  24.629
1827.28  38.973  24.660
1827.78  38.973  24.690
1828.28  38.909  24.660
1828.78  38.909  24.660
1829.28  38.909  24.660
1829.78  38.845  24.660
1830.28  38.909  24.660
1830.78  38.845  24.660
1831.28  38.909  24.690
1831.78  38.973  24.660
1832.28  38.909  24.690
1832.78  38.909  24.690
1833.28  38.973  24.690
1833.78  38.909  24.660
1834.28  38.973  24.690
1834.78  38.909  24.629
1835.28  38.973  24.660
1835.78  38.909  24.690
1836.28  38.845  24.660
1836.78  39.037  24.690
1837.28  38.909  24.690
1837.78  38.909  24.690
1838.28  38.909  24.660
1838.78  38.909  24.690
1839.28  38.973  24.690
1839.78  38.973  24.690
1840.28  38.909  24.690
1840.78  38.909  24.660
1841.28  38.909  24.660
1841.78  38.909  24.721
1842.28  38.909  24.660
1842.78  38.909  24.660
1843.28  38.909  24.660
1843.78  38.973  24.660
1844.28  38.909  24.660
1844.78  38.845  24.660
1845.28  38.909  24.660
1845.78  38.909  24.690
1846.28  38.909  24.690
1846.78  38.973  24.690
1847.28  38.909  24.660
1847.78  38.909  24.721
1848.28  38.909  24.660
1848.78  38.973  24.660
1849.29  38.973  24.690
1849.79  38.909  24.629
1850.29  38.909  24.690
1850.79  38.845  24.660
1851.29  39.037  24.690
1851.79  38.909  24.721
1852.29  38.909  24.690
1852.79  38.973  24.660
1853.29  38.909  24.690
1853.79  38.845  24.660
1854.29  38.973  24.690
1854.79  38.973  24.660
1855.29  38.909  24.629
1855.79  38.973  24.660
1856.29  38.973  24.690
1856.79  38.973  24.690
1857.29  38.909  24.629
1857.79  38.973  24.660
1858.29  38.973  24.660
1858.79  38.909  24.660
1859.29  38.909  24.690
1859.79  38.909  24.660
1860.29  38.973  24.690
1860.79  38.909  24.660
1861.29  38.973  24.660
1861.79  38.973  24.721
1862.29  38.973  24.690
1862.79  38.909  24.629
1863.29  38.973  24.690
1863.79  38.909  24.660
1864.29  38.909  24.690
1864.79  38.973  24.660
1865.29  38.909  24.690
1865.79  38.909  24.660
1866.29  38.909  24.629
1866.79  38.909  24.660
1867.29  39.037  24.660
1867.79  38.973  24.721
1868.29  38.973  24.660
1868.79  38.909  24.690
1869.29  38.909  24.690
1869.79  38.973  24.660
1870.29  38.909  24.690
1870.79  39.037  24.690
1871.29  39.037  24.660
1871.79  38.909  24.660
1872.29  38.973  24.690
1872.79  38.909  24.660
1873.29  38.909  24.660
1873.79  38.909  24.660
1874.29  38.909  24.660
1874.79  39.037  24.629
1875.29  38.973  24.629
1875.79  38.973  24.660
1876.29  38.973  24.690
1876.79  38.973  24.690
1877.29  38.909  24.690
1877.79  38.973  24.660
1878.29  38.973  24.660
1878.79  38.909  24.660
1879.29  39.037  24.660
1879.79  38.973  24.660
1880.29  38.973  24.690
1880.79  38.973  24.660
1881.29  38.973  24.660
1881.79  38.909  24.690
1882.29  38.909  24.660
1882.79  38.909  24.660
1883.29  38.973  24.660
1883.79  38.973  24.660
1884.29  38.909  24.690
1884.79  38.909  24.629
1885.29  38.973  24.690
1885.79  38.973  24.629
1886.29  38.973  24.721
1886.79  39.037  24.690
1887.29  39.037  24.660
1887.79  38.973  24.660
1888.29  38.973  24.690
1888.79  39.165  24.690
1889.29  38.973  24.660
1889.79  38.973  24.660
1890.29  38.973  24.660
1890.79  38.973  24.752
1891.29  38.973  24.690
1891.79  38.973  24.660
1892.29  38.973  24.752
1892.79  38.973  24.660
1893.29  38.973  24.660
1893.79  38.973  24.629
1894.29  39.037  24.660
1894.79  38.973  24.690
1895.29  38.973  24.690
1895.79  39.037  24.660
1896.29  39.037  24.660
1896.79  38.973  24.690
1897.29  38.973  24.690
1897.79  38.909  24.660
1898.29  38.973  24.690
1898.79  38.909  24.690
1899.29  38.973  24.660
1899.79  38.973  24.690
1900.29  38.973  24.660
1900.79  39.037  24.690
1901.29  38.973  24.660
1901.79  39.037  24.690
1902.29  39.037  24.660
1902.79  39.037  24.660
1903.29  38.973  24.690
1903.79  38.973  24.660
1904.29  38.973  24.690
1904.79  38.973  24.660
1905.29  38.973  24.660
1905.79  38.973  24.660
1906.29  39.037  24.660
1906.79  39.037  24.660
1907.29  39.037  24.660
1907.79  38.973  24.660
1908.29  39.037  24.660
1908.79  38.973  24.660
1909.29  38.909  24.660
1909.79  38.973  24.690
1910.29  39.037  24.690
1910.79  38.973  24.660
1911.29  39.037  24.660
1911.79  39.037  24.660
1912.29  39.037  24.660
1912.79  38.973  24.660
1913.29  38.973  24.660
1913.79  38.973  24.660
1914.29  39.037  24.690
1914.79  38.973  24.660
1915.29  38.973  24.690
1915.79  38.973  24.660
1916.29  38.973  24.690
1916.79  39.037  24.660
1917.29  38.973  24.660
1917.79  38.973  24.660
1918.29  38.973  24.660
1918.79  38.973  24.690
1919.29  39.037  24.660
1919.79  39.037  24.660
1920.29  38.973  24.660
1920.79  38.973  24.721
1921.29  39.037  24.660
1921.79  39.037  24.660
1922.29  38.973  24.660
1922.79  39.165  24.660
1923.29  39.037  24.660
1923.79  38.973  24.660
1924.29  39.037  24.660
1924.79  39.037  24.629
1925.29  38.973  24.660
1925.79  39.037  24.660
1926.29  39.037  24.629
1926.79  39.101  24.660
1927.29  38.973  24.660
1927.79  38.973  24.629
1928.29  38.973  24.690
1928.79  38.973  24.660
1929.29  39.037  24.660
1929.79  39.037  24.660
1930.29  38.973  24.690
1930.79  38.973  24.660
1931.29  38.973  24.690
1931.79  39.037  24.690
1932.29  39.037  24.690
1932.79  39.037  24.690
1933.29  39.037  24.660
1933.79  39.037  24.690
1934.29  38.973  24.660
1934.79  38.973  24.690
1935.29  38.973  24.690
1935.79  39.037  24.660
1936.29  39.037  24.660
1936.79  39.037  24.721
1937.29  39.037  24.690
1937.79  38.973  24.660
1938.29  38.973  24.660
1938.79  39.037  24.690
1939.29  39.037  24.690
1939.79  39.037  24.660
1940.29  39.037  24.660
1940.79  38.909  24.660
1941.29  39.037  24.690
1941.79  38.973  24.660
1942.29  39.037  24.690
1942.79  38.973  24.690
1943.29  39.037  24.660
1943.79  39.037  24.660
1944.29  39.037  24.690
1944.79  39.037  24.690
1945.29  39.037  24.690
1945.79  39.037  24.660
1946.29  39.037  24.721
1946.79  39.037  24.690
1947.29  38.973  24.660
1947.79  39.101  24.660
1948.29  38.973  24.660
1948.79  38.973  24.690
1949.29  38.973  24.660
1949.79  39.037  24.660
1950.29  39.037  24.629
1950.79  39.037  24.660
1951.29  39.037  24.660
1951.79  39.037  24.660
1952.29  39.101  24.629
1952.79  39.101  24.690
1953.29  39.101  24.660
1953.79  39.037  24.690
1954.29  39.037  24.660
1954.79  39.037  24.690
1955.29  39.037  24.690
1955.79  39.037  24.690
1956.29  38.973  24.660
1956.79  39.101  24.660
1957.29  39.037  24.660
1957.79  39.037  24.660
1958.29  38.973  24.690
1958.79  39.037  24.660
1959.29  39.037  24.660
1959.79  39.037  24.660
1960.29  39.165  24.721
1960.79  38.973  24.660
1961.29  39.037  24.690
1961.79  39.037  24.660
1962.30  39.037  24.660
1962.80  39.037  24.660
1963.30  39.229  24.660
1963.80  39.037  24.660
1964.30  39.037  24.660
1964.80  38.973  24.690
1965.30  39.037  24.660
1965.80  39.037  24.660
1966.30  39.101  24.629
1966.80  39.037  24.660
1967.30  39.101  24.690
1967.80  39.037  24.660
1968.30  39.037  24.660
1968.80  39.037  24.660
1969.30  39.101  24.690
1969.80  39.037  24.660
1970.30  39.101  24.690
1970.80  39.037  24.690
1971.30  39.037  24.660
1971.80  39.101  24.660
1972.30  39.101  24.690
1972.80  39.101  24.690
1973.30  39.101  24.660
1973.80  38.973  24.660
1974.30  38.973  24.690
1974.80  39.037  24.629
1975.30  39.037  24.690
1975.80  39.037  24.690
1976.30  39.037  24.660
1976.80  39.165  24.690
1977.30  39.037  24.660
1977.80  39.037  24.660
1978.30  39.037  24.629
1978.80  39.101  24.660
1979.30  39.037  24.690
1979.80  39.037  24.690
1980.30  39.037  24.660
1980.80  39.101  24.690
1981.30  39.037  24.660
1981.80  39.037  24.721
1982.30  39.037  24.690
1982.80  39.037  24.721
1983.30  39.101  24.690
1983.80  39.101  24.690
1984.30  39.101  24.690
1984.80  39.101  24.660
1985.30  39.037  24.721
1985.80  39.037  24.690
1986.30  38.973  24.690
1986.80  38.973  24.690
1987.30  39.101  24.690
1987.80  38.973  24.690
1988.30  39.037  24.660
1988.80  39.165  24.660
1989.30  39.165  24.690
1989.80  39.101  24.690
1990.30  39.165  24.690
1990.80  39.037  24.690
1991.30  39.037  24.690
1991.80  39.101  24.690
1992.30  39.037  24.690
1992.80  39.101  24.690
1993.30  39.037  24.660
1993.80  39.165  24.721
1994.30  39.101  24.690
1994.80  39.101  24.690
1995.30  39.101  24.690
1995.80  39.101  24.660
1996.30  39.101  24.690
1996.80  39.037  24.690
1997.30  39.101  24.690
1997.80  39.101  24.690
1998.30  39.101  24.690
1998.80  39.101  24.660
1999.30  38.973  24.690
1999.80  39.101  24.660
2000.30  39.101  24.690
2000.80  39.101  24.660
2001.30  39.037  24.690
2001.80  39.101  24.690
2002.30  39.165  24.690
2002.80  39.101  24.721
2003.30  39.037  24.660
2003.80  39.101  24.690
2004.30  39.101  24.660
2004.80  39.037  24.690
2005.30  39.101  24.690
2005.80  39.037  24.690
2006.30  39.037  24.721
2006.80  39.101  24.690
2007.30  39.037  24.690
2007.80  39.101  24.690
2008.30  39.101  24.660
2008.80  38.973  24.690
2009.30  39.165  24.690
2009.80  39.165  24.660
2010.30  39.165  24.721
2010.80  39.165  24.690
2011.30  39.101  24.690
2011.80  39.101  24.690
2012.30  39.101  24.660
2012.80  39.101  24.629
2013.30  39.101  24.690
2013.80  39.165  24.629
2014.30  39.101  24.690
2014.80  39.101  24.660
2015.30  39.101  24.721
2015.80  39.037  24.660
2016.30  39.037  24.690
2016.80  39.101  24.660
2017.30  39.101  24.690
2017.80  39.101  24.629
2018.30  39.101  24.660
2018.80  39.101  24.690
2019.30  39.037  24.660
2019.80  39.037  24.660
2020.30  39.101  24.660
2020.80  39.101  24.690
2021.30  39.037  24.752
2021.80  39.101  24.690
2022.30  39.165  24.690
2022.80  39.037  24.690
2023.30  39.101  24.690
2023.80  39.037  24.690
2024.30  39.037  24.660
2024.80  39.101  24.660
2025.30  39.101  24.690
2025.80  39.101  24.660
2026.30  39.101  24.660
2026.80  39.101  24.690
2027.30  39.101  24.690
2027.80  39.165  24.660
2028.30  39.165  24.660
2028.80  38.973  24.690
2029.30  39.165  24.690
2029.80  39.101  24.690
2030.30  39.101  24.660
2030.80  39.165  24.660
2031.30  39.101  24.690
2031.80  39.101  24.690
2032.30  39.293  24.660
2032.80  39.101  24.660
2033.30  39.165  24.690
2033.80  39.101  24.629
2034.30  39.101  24.660
2034.80  39.165  24.690
2035.30  39.165  24.660
2035.80  39.101  24.660
2036.30  39.165  24.660
2036.80  39.229  24.690
2037.30  39.101  24.690
2037.80  39.037  24.690
2038.30  39.101  24.690
2038.80  39.229  24.690
2039.30  39.101  24.660
2039.80  39.165  24.690
2040.30  39.101  24.690
2040.80  39.101  24.690
2041.30  39.101  24.721
2041.80  39.165  24.660
2042.30  39.101  24.690
2042.80  39.037  24.690
2043.30  39.101  24.690
2043.80  39.101  24.690
2044.30  39.101  24.690
2044.80  39.037  24.690
2045.30  39.101  24.690
2045.80  39.101  24.690
2046.30  39.165  24.690
2046.80  39.229  24.660
2047.30  39.101  24.660
2047.80  39.165  24.721
2048.30  39.165  24.721
2048.80  39.165  24.690
2049.30  39.101  24.690
2049.80  39.101  24.690
2050.30  39.101  24.660
2050.80  39.101  24.629
2051.30  39.101  24.690
2051.80  39.101  24.690
2052.30  39.101  24.690
2052.80  39.101  24.690
2053.30  39.165  24.690
2053.80  39.101  24.721
2054.30  39.165  24.690
2054.80  39.037  24.690
2055.30  39.165  24.690
2055.80  39.165  24.690
2056.30  39.165  24.690
2056.80  39.101  24.660
2057.30  39.165  24.690
2057.80  39.101  24.690
2058.30  39.101  24.660
2058.80  39.165  24.721
2059.30  39.165  24.690
2059.80  39.101  24.690
2060.30  39.101  24.690
2060.80  39.165  24.721
2061.30  39.165  24.690
2061.80  39.101  24.690
2062.30  39.165  24.690
2062.80  39.165  24.660
2063.30  39.101  24.690
2063.80  39.101  24.690
2064.30  39.101  24.721
2064.80  39.165  24.690
2065.30  39.101  24.721
2065.80  39.101  24.660
2066.30  39.101  24.660
2066.80  39.101  24.721
2067.30  39.165  24.660
2067.80  39.101  24.690
2068.30  39.101  24.721
2068.80  39.101  24.721
2069.30  39.101  24.660
2069.80  39.101  24.690
2070.30  39.101  24.690
2070.80  39.101  24.690
2071.30  39.101  24.660
2071.80  39.165  24.660
2072.30  39.101  24.690
2072.80  39.229  24.690
2073.30  39.229  24.690
2073.80  39.101  24.690
2074.30  39.229  24.690
2074.80  39.229  24.721
2075.30  39.165  24.690
2075.80  39.165  24.690
2076.30  39.165  24.660
2076.80  39.165  24.690
2077.30  39.101  24.660
2077.80  39.229  24.690
2078.30  39.165  24.660
2078.80  39.229  24.690
2079.30  39.165  24.660
2079.80  39.165  24.690
2080.30  39.165  24.690
2080.80  39.101  24.660
2081.30  39.101  24.690
2081.80  39.165  24.690
2082.30  39.165  24.690
2082.80  39.165  24.721
2083.30  39.165  24.690
2083.80  39.165  24.690
2084.30  39.165  24.690
2084.80  39.101  24.690
2085.30  39.165  24.690
2085.80  39.165  24.690
2086.31  39.165  24.690
2086.81  39.229  24.721
2087.31  39.165  24.721
2087.81  39.165  24.690
2088.31  39.165  24.690
2088.81  39.101  24.690
2089.31  39.165  24.690
2089.81  39.165  24.690
2090.31  39.229  24.690
2090.81  39.101  24.660
2091.31  39.165  24.721
2091.81  39.165  24.690
2092.31  39.229  24.660
2092.81  39.229  24.690
2093.31  39.165  24.690
2093.81  39.165  24.629
2094.31  39.229  24.660
2094.81  39.165  24.629
2095.31  39.165  24.660
2095.81  39.165  24.690
2096.31  39.101  24.690
2096.81  39.165  24.690
2097.31  39.101  24.690
2097.81  39.165  24.660
2098.31  39.165  24.690
2098.81  39.165  24.660
2099.31  39.165  24.690
2099.81  39.165  24.690
2100.31  39.165  24.690
2100.81  39.165  24.690
2101.31  39.101  24.690
2101.81  39.165  24.690
2102.31  39.165  24.660
2102.81  39.165  24.690
2103.31  39.165  24.690
2103.81  39.165  24.690
2104.31  39.229  24.690
2104.81  39.101  24.690
2105.31  39.165  24.690
2105.81  39.101  24.690
2106.31  39.229  24.690
2106.81  39.101  24.690
2107.31  39.101  24.721
2107.81  39.101  24.690
2108.31  39.165  24.660
2108.81  39.165  24.660
2109.31  39.101  24.660
2109.81  39.165  24.660
2110.31  39.165  24.690
2110.81  39.101  24.690
2111.31  39.165  24.721
2111.81  39.229  24.660
2112.31  39.101  24.690
2112.81  39.165  24.690
2113.31  39.229  24.660
2113.81  39.165  24.690
2114.31  39.165  24.660
2114.81  39.165  24.690
2115.31  39.165  24.660
2115.81  39.165  24.690
2116.31  39.165  24.660
2116.81  39.165  24.690
2117.31  39.165  24.690
2117.81  39.165  24.660
2118.31  39.229  24.660
2118.81  39.165  24.690
2119.31  39.101  24.629
2119.81  39.165  24.660
2120.31  39.101  24.690
2120.81  39.165  24.629
2121.31  39.229  24.660
2121.81  39.037  24.690
2122.31  39.165  24.721
2122.81  39.165  24.690
2123.31  39.165  24.660
2123.81  39.293  24.690
2124.31  39.165  24.660
2124.81  39.101  24.660
2125.31  39.229  24.690
2125.81  39.165  24.690
2126.31  39.229  24.721
2126.81  39.165  24.690
2127.31  39.165  24.690
2127.81  39.165  24.660
2128.31  39.229  24.690
2128.81  39.165  24.690
2129.31  39.101  24.690
2129.81  39.165  24.690
2130.31  39.229  24.690
2130.81  39.357  24.690
2131.31  39.165  24.660
2131.81  39.165  24.690
2132.31  39.229  24.660
2132.81  39.101  24.660
2133.31  39.229  24.690
2133.81  39.165  24.690
2134.31  39.165  24.690
2134.81  39.229  24.721
2135.31  39.165  24.660
2135.81  39.229  24.660
2136.31  39.101  24.690
2136.81  39.229  24.721
2137.31  39.229  24.690
2137.81  39.229  24.690
2138.31  39.229  24.690
2138.81  39.229  24.690
2139.31  39.165  24.690
2139.81  39.165  24.690
2140.31  39.165  24.690
2140.81  39.229  24.690
2141.31  39.293  24.690
2141.81  39.165  24.629
2142.31  39.229  24.690
2142.81  39.229  24.690
2143.31  39.165  24.690
2143.81  39.293  24.690
2144.31  39.165  24.690
2144.81  39.165  24.690
2145.31  39.229  24.721
2145.81  39.293  24.690
2146.31  39.165  24.721
2146.81  39.229  24.721
2147.31  39.229  24.690
2147.81  39.101  24.660
2148.31  39.229  24.660
2148.81  39.165  24.690
2149.31  39.229  24.690
2149.81  39.101  24.690
2150.31  39.165  24.660
2150.81  39.165  24.690
2151.31  39.229  24.660
2151.81  39.165  24.660
2152.31  39.165  24.660
2152.81  39.165  24.660
2153.31  39.293  24.690
2153.81  39.165  24.690
2154.31  39.293  24.660
2154.81  39.229  24.690
2155.31  39.165  24.690
2155.81  39.229  24.660
2156.31  39.229  24.690
2156.81  39.229  24.690
2157.31  39.165  24.690
2157.81  39.229  24.690
2158.31  39.165  24.752
2158.81  39.229  24.690
2159.31  39.165  24.690
2159.81  39.229  24.690
2160.31  39.229  24.690
2160.81  39.229  24.690
2161.31  39.229  24.690
2161.81  39.229  24.690
2162.31  39.229  24.690
2162.81  39.229  24.660
2163.31  39.229  24.690
2163.81  39.293  24.721
2164.31  39.165  24.690
2164.81  39.229  24.660
2165.31  39.165  24.660
2165.81  39.229  24.690
2166.31  39.229  24.690
2166.81  39.165  24.721
2167.31  39.165  24.721
2167.81  39.229  24.690
2168.31  39.165  24.690
2168.81  39.229  24.690
2169.31  39.229  24.690
2169.81  39.101  24.660
2170.31  39.165  24.690
2170.81  39.421  24.660
2171.31  39.229  24.690
2171.81  39.165  24.660
2172.31  39.229  24.690
2172.81  39.229  24.690
2173.31  39.165  24.690
2173.81  39.229  24.721
2174.31  39.229  24.660
2174.81  39.229  24.690
2175.31  39.165  24.660
2175.81  39.229  24.690
2176.31  39.229  24.721
2176.81  39.229  24.690
2177.31  39.229  24.690
2177.81  39.229  24.690
2178.31  39.229  24.660
2178.81  39.229  24.690
2179.31  39.229  24.660
2179.81  39.293  24.690
2180.31  39.229  24.690
2180.81  39.293  24.690
2181.31  39.229  24.690
2181.81  39.229  24.690
2182.31  39.101  24.690
2182.81  39.229  24.690
2183.31  39.165  24.690
2183.81  39.229  24.660
2184.31  39.229  24.660
2184.81  39.229  24.660
2185.31  39.229  24.690
2185.81  39.101  24.660
2186.31  39.229  24.660
2186.81  39.165  24.660
2187.31  39.229  24.721
2187.81  39.229  24.690
2188.31  39.037  24.690
2188.82  39.229  24.721
2189.32  39.229  24.721
2189.82  39.165  24.690
2190.32  39.229  24.690
2190.82  39.293  24.690
2191.32  39.229  24.660
2191.82  39.229  24.690
2192.32  39.229  24.721
2192.82  39.229  24.690
2193.32  39.229  24.690
2193.82  39.293  24.660
2194.32  39.165  24.690
2194.82  39.165  24.721
2195.32  39.293  24.660
2195.82  39.229  24.690
2196.32  39.293  24.690
2196.82  39.293  24.660
2197.32  39.229  24.690
2197.82  39.229  24.690
2198.32  39.229  24.690
2198.82  39.229  24.690
2199.32  39.165  24.721
2199.82  39.229  24.690
2200.32  39.229  24.690
2200.82  39.229  24.660
2201.32  39.229  24.721
2201.82  39.229  24.690
2202.32  39.165  24.721
2202.82  39.293  24.660
2203.32  39.229  24.721
2203.82  39.229  24.690
2204.32  39.165  24.690
2204.82  39.229  24.690
2205.32  39.229  24.660
2205.82  39.293  24.660
2206.32  39.293  24.690
2206.82  39.229  24.690
2207.32  39.229  24.721
2207.82  39.229  24.690
2208.32  39.293  24.660
2208.82  39.229  24.660
2209.32  39.293  24.690
2209.82  39.229  24.690
2210.32  39.229  24.660
2210.82  39.229  24.690
2211.32  39.229  24.690
2211.82  39.229  24.660
2212.32  39.229  24.660
2212.82  39.165  24.690
2213.32  39.293  24.629
2213.82  39.101  24.690
2214.32  39.229  24.690
2214.82  39.165  24.690
2215.32  39.293  24.721
2215.82  39.229  24.690
2216.32  39.229  24.690
2216.82  39.229  24.690
2217.32  39.229  24.690
2217.82  39.229  24.690
2218.32  39.229  24.660
2218.82  39.293  24.660
2219.32  39.293  24.690
2219.82  39.293  24.690
2220.32  39.229  24.690
2220.82  39.229  24.690
2221.32  39.293  24.690
2221.82  39.229  24.721
2222.32  39.229  24.690
2222.82  39.229  24.660
2223.32  39.293  24.690
2223.82  39.229  24.660
2224.32  39.229  24.690
2224.82  39.229  24.660
2225.32  39.229  24.690
2225.82  39.229  24.660
2226.32  39.229  24.721
2226.82  39.293  24.690
2227.32  39.229  24.690
2227.82  39.293  24.721
2228.32  39.293  24.721
2228.82  39.293  24.690
2229.32  39.293  24.660
2229.82  39.229  24.690
2230.32  39.293  24.690
2230.82  39.229  24.660
2231.32  39.293  24.690
2231.82  39.229  24.690
2232.32  39.229  24.660
2232.82  39.165  24.690
2233.32  39.229  24.660
2233.82  39.229  24.690
2234.32  39.229  24.690
2234.82  39.229  24.660
2235.32  39.229  24.660
2235.82  39.229  24.660
2236.32  39.229  24.660
2236.82  39.293  24.629
2237.32  39.229  24.690
2237.82  39.229  24.660
2238.32  39.229  24.690
2238.82  39.165  24.690
2239.32  39.229  24.690
2239.82  39.229  24.690
2240.32  39.293  24.690
2240.82  39.229  24.690
2241.32  39.229  24.690
2241.82  39.229  24.660
2242.32  39.229  24.660
2242.82  39.293  24.690
2243.32  39.229  24.690
2243.82  39.229  24.660
2244.32  39.229  24.690
2244.82  39.229  24.690
2245.32  39.229  24.660
2245.82  39.293  24.690
2246.32  39.165  24.690
2246.82  39.293  24.660
2247.32  39.229  24.690
2247.82  39.165  24.660
2248.32  39.229  24.660
2248.82  39.293  24.660
2249.32  39.229  24.690
2249.82  39.229  24.690
2250.32  39.229  24.690
2250.82  39.229  24.690
2251.32  39.229  24.690
2251.82  39.293  24.721
2252.32  39.229  24.690
2252.82  39.229  24.721
2253.32  39.293  24.690
2253.82  39.229  24.690
2254.32  39.293  24.660
2254.82  39.229  24.721
2255.32  39.293  24.690
2255.82  39.229  24.690
2256.32  39.293  24.660
2256.82  39.229  24.690
2257.32  39.293  24.690
2257.82  39.293  24.690
2258.32  39.229  24.690
2258.82  39.293  24.690
2259.32  39.293  24.690
2259.82  39.293  24.690
2260.32  39.293  24.660
2260.82  39.229  24.690
2261.32  39.229  24.721
2261.82  39.229  24.690
2262.32  39.229  24.690
2262.82  39.293  24.690
2263.32  39.293  24.690
2263.82  39.229  24.660
2264.32  39.229  24.660
2264.82  39.293  24.690
2265.32  39.293  24.721
2265.82  39.293  24.690
2266.32  39.293  24.690
2266.82  39.293  24.690
2267.32  39.229  24.690
2267.82  39.229  24.660
2268.32  39.357  24.690
2268.82  39.293  24.660
2269.32  39.229  24.660
2269.82  39.293  24.660
2270.32  39.293  24.690
2270.82  39.229  24.690
2271.32  39.293  24.690
2271.82  39.293  24.690
2272.32  39.293  24.660
2272.82  39.293  24.690
2273.32  39.293  24.690
2273.82  39.229  24.690
2274.32  39.293  24.721
2274.82  39.229  24.721
2275.32  39.293  24.690
2275.82  39.293  24.690
2276.32  39.293  24.690
2276.82  39.421  24.690
2277.32  39.293  24.690
2277.82  39.357  24.660
2278.32  39.229  24.660
2278.82  39.357  24.721
2279.32  39.357  24.690
2279.82  39.229  24.721
2280.32  39.293  24.690
2280.82  39.293  24.721
2281.32  39.293  24.690
2281.82  39.229  24.690
2282.32  39.293  24.660
2282.82  39.293  24.690
2283.32  39.229  24.690
2283.82  39.229  24.690
2284.32  39.357  24.690
2284.82  39.357  24.690
2285.32  39.293  24.660
2285.82  39.357  24.721
2286.32  39.229  24.690
2286.82  39.293  24.721
2287.32  39.293  24.690
2287.82  39.357  24.690
2288.32  39.293  24.660
2288.82  39.293  24.690
2289.32  39.293  24.690
2289.82  39.293  24.690
2290.32  39.293  24.690
2290.82  39.293  24.690
2291.32  39.293  24.721
2291.82  39.229  24.690
2292.32  39.357  24.690
2292.82  39.293  24.690
2293.32  39.165  24.690
2293.82  39.293  24.690
2294.32  39.293  24.690
2294.82  39.293  24.690
2295.32  39.293  24.690
2295.82  39.293  24.690
2296.32  39.293  24.690
2296.82  39.293  24.721
2297.32  39.293  24.690
2297.82  39.229  24.690
2298.32  39.165  24.721
2298.82  39.293  24.690
2299.32  39.293  24.690
2299.82  39.293  24.690
2300.32  39.293  24.690
2300.82  39.229  24.660
2301.32  39.357  24.690
2301.82  39.229  24.690
2302.32  39.357  24.660
2302.82  39.293  24.690
2303.32  39.293  24.690
2303.82  39.357  24.721
2304.32  39.229  24.690
2304.82  39.357  24.721
2305.32  39.293  24.690
2305.82  39.229  24.690
2306.32  39.101  24.690
2306.82  39.293  24.690
2307.32  39.293  24.660
2307.82  39.293  24.690
2308.32  39.293  24.690
2308.82  39.293  24.660
2309.32  39.357  24.721
2309.82  39.293  24.690
2310.32  39.357  24.690
2310.82  39.293  24.690
2311.32  39.293  24.690
2311.82  39.357  24.660
2312.32  39.293  24.690
2312.83  39.229  24.660
2313.33  39.357  24.721
2313.83  39.293  24.690
2314.33  39.293  24.690
2314.83  39.293  24.690
2315.33  39.293  24.690
2315.83  39.293  24.690
2316.33  39.293  24.660
2316.83  39.293  24.660
2317.33  39.357  24.660
2317.83  39.293  24.690
2318.33  39.293  24.690
2318.83  39.293  24.660
2319.33  39.357  24.721
2319.83  39.293  24.690
2320.33  39.293  24.660
2320.83  39.293  24.721
2321.33  39.293  24.690
2321.83  39.293  24.690
2322.33  39.293  24.721
2322.83  39.357  24.690
2323.33  39.357  24.690
2323.83  39.293  24.690
2324.33  39.293  24.690
2324.83  39.293  24.660
2325.33  39.293  24.660
2325.83  39.293  24.690
2326.33  39.293  24.721
2326.83  39.357  24.690
2327.33  39.293  24.721
2327.83  39.357  24.690
2328.33  39.293  24.690
2328.83  39.293  24.690
2329.33  39.293  24.690
2329.83  39.293  24.690
2330.33  39.293  24.690
2330.83  39.293  24.690
2331.33  39.357  24.690
2331.83  39.229  24.721
2332.33  39.357  24.690
2332.83  39.357  24.690
2333.33  39.357  24.660
2333.83  39.357  24.690
2334.33  39.357  24.690
2334.83  39.293  24.690
2335.33  39.293  24.690
2335.83  39.293  24.690
2336.33  39.229  24.690
2336.83  39.293  24.690
2337.33  39.293  24.660
2337.83  39.293  24.690
2338.33  39.293  24.690
2338.83  39.165  24.690
2339.33  39.293  24.690
2339.83  39.357  24.690
2340.33  39.293  24.660
2340.83  39.293  24.690
2341.33  39.293  24.690
2341.83  39.293  24.690
2342.33  39.293  24.660
2342.83  39.293  24.752
2343.33  39.357  24.690
2343.83  39.357  24.721
2344.33  39.357  24.660
2344.83  39.293  24.690
2345.33  39.293  24.690
2345.83  39.293  24.690
2346.33  39.293  24.752
2346.83  39.293  24.660
2347.33  39.293  24.690
2347.83  39.357  24.660
2348.33  39.421  24.690
2348.83  39.357  24.690
2349.33  39.421  24.721
2349.83  39.293  24.690
2350.33  39.293  24.690
2350.83  39.229  24.721
2351.33  39.293  24.690
2351.83  39.357  24.660
2352.33  39.485  24.690
2352.83  39.357  24.721
2353.33  39.357  24.690
2353.83  39.357  24.721
2354.33  39.293  24.721
2354.83  39.357  24.690
2355.33  39.357  24.690
2355.83  39.293  24.721
2356.33  39.293  24.752
2356.83  39.229  24.690
2357.33  39.293  24.690
2357.83  39.357  24.721
2358.33  39.293  24.660
2358.83  39.357  24.690
2359.33  39.293  24.690
2359.83  39.357  24.690
2360.33  39.357  24.690
2360.83  39.357  24.660
2361.33  39.357  24.690
2361.83  39.293  24.690
2362.33  39.229  24.721
2362.83  39.357  24.721
2363.33  39.293  24.660
2363.83  39.421  24.690
2364.33  39.357  24.690
2364.83  39.293  24.690
2365.33  39.293  24.690
2365.83  39.293  24.690
2366.33  39.293  24.690
2366.83  39.293  24.660
2367.33  39.421  24.721
2367.83  39.357  24.690
2368.33  39.357  24.660
2368.83  39.293  24.690
2369.33  39.357  24.690
2369.83  39.357  24.690
2370.33  39.293  24.690
2370.83  39.293  24.690
2371.33  39.357  24.752
2371.83  39.357  24.690
2372.33  39.293  24.690
2372.83  39.293  24.660
2373.33  39.293  24.721
2373.83  39.421  24.660
2374.33  39.293  24.721
2374.83  39.293  24.660
2375.33  39.357  24.690
2375.83  39.293  24.690
2376.33  39.293  24.690
2376.83  39.357  24.690
2377.33  39.357  24.690
2377.83  39.357  24.660
2378.33  39.293  24.690
2378.83  39.421  24.690
2379.33  39.293  24.690
2379.83  39.357  24.690
2380.33  39.357  24.690
2380.83  39.293  24.721
2381.33  39.357  24.690
2381.83  39.485  24.690
2382.33  39.357  24.690
2382.83  39.357  24.690
2383.33  39.357  24.690
2383.83  39.357  24.690
2384.33  39.293  24.690
2384.83  39.357  24.690
2385.33  39.293  24.690
2385.83  39.357  24.690
2386.33  39.357  24.721
2386.83  39.293  24.721
2387.33  39.293  24.721
2387.83  39.357  24.690
2388.33  39.357  24.660
2388.83  39.293  24.690
2389.33  39.357  24.690
2389.83  39.357  24.660
2390.33  39.229  24.629
2390.83  39.357  24.690
2391.33  39.357  24.721
2391.83  39.421  24.690
2392.33  39.357  24.660
2392.83  39.421  24.690
2393.33  39.421  24.690
2393.83  39.293  24.660
2394.33  39.357  24.690
2394.83  39.357  24.721
2395.33  39.357  24.660
2395.83  39.293  24.690
2396.33  39.357  24.690
2396.83  39.357  24.690
2397.33  39.293  24.690
2397.83  39.357  24.690
2398.33  39.357  24.660
2398.83  39.357  24.690
2399.33  39.421  24.690
2399.83  39.357  24.690
2400.33  39.421  24.690
2400.83  39.357  24.660
2401.33  39.357  24.690
2401.83  39.421  24.690
2402.33  39.357  24.721
2402.83  39.293  24.660
2403.33  39.357  24.721
2403.83  39.293  24.690
2404.33  39.357  24.721
2404.83  39.357  24.660
2405.33  39.357  24.690
2405.83  39.357  24.690
2406.33  39.357  24.721
2406.83  39.293  24.690
2407.33  39.357  24.660
2407.83  39.357  24.814
2408.33  39.357  24.690
2408.83  39.421  24.690
2409.33  39.293  24.660
2409.83  39.357  24.690
2410.33  39.357  24.690
2410.83  39.293  24.690
2411.33  39.357  24.690
2411.83  39.357  24.752
2412.33  39.357  24.660
2412.83  39.357  24.690
2413.33  39.421  24.690
2413.83  39.293  24.690
2414.33  39.357  24.690
2414.84  39.357  24.660
2415.34  39.357  24.690
2415.84  39.421  24.690
2416.34  39.357  24.690
2416.84  39.357  24.690
2417.34  39.357  24.721
2417.84  39.357  24.721
2418.34  39.357  24.690
2418.84  39.357  24.690
2419.34  39.357  24.690
2419.84  39.293  24.690
2420.34  39.357  24.721
2420.84  39.293  24.690
2421.34  39.357  24.690
2421.84  39.357  24.690
2422.34  39.421  24.752
2422.84  39.421  24.690
2423.34  39.357  24.690
2423.84  39.357  24.690
2424.34  39.357  24.660
2424.84  39.293  24.690
2425.34  39.549  24.690
2425.84  39.421  24.690
2426.34  39.357  24.690
2426.84  39.357  24.690
2427.34  39.549  24.690
2427.84  39.357  24.690
2428.34  39.293  24.690
2428.84  39.357  24.629
2429.34  39.357  24.690
2429.84  39.421  24.690
2430.34  39.357  24.690
2430.84  39.421  24.690
2431.34  39.357  24.660
2431.84  39.357  24.660
2432.34  39.293  24.690
2432.84  39.357  24.721
2433.34  39.357  24.721
2433.84  39.421  24.721
2434.34  39.357  24.690
2434.84  39.293  24.690
2435.34  39.357  24.721
2435.84  39.357  24.752
2436.34  39.357  24.721
2436.84  39.357  24.690
2437.34  39.357  24.721
2437.84  39.357  24.690
2438.34  39.421  24.721
2438.84  39.357  24.690
2439.34  39.357  24.690
2439.84  39.357  24.690
2440.34  39.357  24.721
2440.84  39.293  24.690
2441.34  39.293  24.690
2441.84  39.421  24.690
2442.34  39.421  24.690
2442.84  39.357  24.721
2443.34  39.421  24.690
2443.84  39.293  24.690
2444.34  39.293  24.690
2444.84  39.357  24.690
2445.34  39.421  24.690
2445.84  39.293  24.721
2446.34  39.357  24.721
2446.84  39.357  24.690
2447.34  39.357  24.721
2447.84  39.357  24.690
2448.34  39.357  24.721
2448.84  39.357  24.690
2449.34  39.357  24.690
2449.84  39.421  24.690
2450.34  39.357  24.721
2450.84  39.357  24.690
2451.34  39.421  24.690
2451.84  39.357  24.690
2452.34  39.357  24.721
2452.84  39.357  24.690
2453.34  39.357  24.690
2453.84  39.357  24.690
2454.34  39.421  24.690
2454.84  39.357  24.690
2455.34  39.421  24.690
2455.84  39.357  24.690
2456.34  39.357  24.690
2456.84  39.421  24.721
2457.34  39.293  24.690
2457.84  39.357  24.690
2458.34  39.421  24.690
2458.84  39.357  24.690
2459.34  39.357  24.660
2459.84  39.421  24.660
2460.34  39.293  24.690
2460.84  39.421  24.660
2461.34  39.421  24.690
2461.84  39.421  24.721
2462.34  39.421  24.690
2462.84  39.357  24.690
2463.34  39.357  24.690
2463.84  39.485  24.690
2464.34  39.357  24.690
2464.84  39.421  24.721
2465.34  39.357  24.690
2465.84  39.293  24.721
2466.34  39.357  24.690
2466.84  39.421  24.721
2467.34  39.357  24.690
2467.84  39.421  24.690
2468.34  39.421  24.721
2468.84  39.421  24.752
2469.34  39.357  24.721
2469.84  39.421  24.690
2470.34  39.293  24.690
2470.84  39.357  24.721
2471.34  39.357  24.690
2471.84  39.421  24.690
2472.34  39.357  24.690
2472.84  39.357  24.690
2473.34  39.293  24.660
2473.84  39.485  24.721
2474.34  39.421  24.690
2474.84  39.421  24.721
2475.34  39.421  24.721
2475.84  39.421  24.752
2476.34  39.357  24.690
2476.84  39.357  24.721
2477.34  39.357  24.690
2477.84  39.421  24.690
2478.34  39.421  24.690
2478.84  39.357  24.690
2479.34  39.357  24.690
2479.84  39.357  24.721
2480.34  39.421  24.721
2480.84  39.485  24.690
2481.34  39.421  24.690
2481.84  39.357  24.660
2482.34  39.357  24.690
2482.84  39.357  24.690
2483.34  39.421  24.690
2483.84  39.357  24.690
2484.34  39.485  24.690
2484.84  39.357  24.721
2485.34  39.421  24.690
2485.84  39.293  24.690
2486.34  39.357  24.690
2486.84  39.293  24.690
2487.34  39.357  24.721
2487.84  39.421  24.690
2488.34  39.357  24.690
2488.84  39.357  24.690
2489.34  39.357  24.690
2489.84  39.421  24.690
2490.34  39.421  24.690
2490.84  39.357  24.721
2491.34  39.421  24.660
2491.84  39.421  24.721
2492.34  39.357  24.721
2492.84  39.357  24.690
2493.34  39.421  24.690
2493.84  39.357  24.690
2494.34  39.421  24.690
2494.84  39.357  24.660
2495.34  39.421  24.690
2495.84  39.357  24.690
2496.34  39.357  24.660
2496.84  39.357  24.721
2497.34  39.357  24.690
2497.84  39.421  24.690
2498.34  39.421  24.721
2498.84  39.421  24.690
2499.34  39.357  24.690
2499.84  39.421  24.721
2500.34  39.485  24.721
2500.84  39.485  24.690
2501.34  39.357  24.721
2501.84  39.421  24.721
2502.34  39.421  24.721
2502.84  39.293  24.690
2503.34  39.357  24.690
2503.84  39.421  24.690
2504.34  39.357  24.721
2504.84  39.357  24.721
2505.34  39.357  24.660
2505.84  39.421  24.690
