   2.00  23.931  23.335
   2.50  23.931  23.335
   3.00  23.905  23.335
   3.50  23.905  23.335
   4.00  23.931  23.335
   4.50  23.905  23.366
   5.00  23.905  23.366
   5.50  23.905  23.335
   6.00  23.905  23.304
   6.50  23.931  23.304
   7.00  23.931  23.366
   7.50  23.905  23.335
   8.00  23.905  23.304
   8.50  23.931  23.335
   9.00  23.931  23.304
   9.50  23.905  23.335
  10.00  23.905  23.335
  10.50  23.957  23.273
  11.00  23.905  23.335
  11.50  23.931  23.335
  12.00  23.905  23.366
  12.50  23.905  23.335
  13.00  23.905  23.366
  13.50  23.905  23.366
  14.00  23.905  23.335
  14.50  23.931  23.366
  15.00  23.878  23.335
  15.50  23.931  23.335
  16.00  23.957  23.366
  16.50  23.931  23.366
  17.00  23.957  23.335
  17.50  23.983  23.335
  18.00  23.931  23.335
  18.50  23.983  23.335
  19.00  23.957  23.335
  19.50  23.983  23.335
  20.00  23.983  23.335
  20.50  24.009  23.335
  21.00  24.009  23.335
  21.50  24.035  23.335
  22.00  24.035  23.335
  22.50  24.035  23.366
  23.00  24.035  23.366
  23.50  24.035  23.335
  24.00  24.035  23.366
  24.50  24.061  23.335
  25.00  24.035  23.335
  25.50  24.061  23.366
  26.00  24.061  23.366
  26.50  24.140  23.273
  27.00  24.113  23.335
  27.50  24.087  23.335
  28.00  24.061  23.335
  28.50  24.140  23.396
  29.00  24.140  23.335
  29.50  24.140  23.396
  30.00  24.087  23.335
  30.50  24.035  23.335
  31.00  24.113  23.366
  31.50  24.140  23.335
  32.00  24.192  23.335
  32.50  24.140  23.335
  33.00  24.166  23.366
  33.50  24.140  23.366
  34.00  24.192  23.366
  34.50  24.140  23.335
  35.00  24.166  23.366
  35.50  24.166  23.396
  36.00  24.166  23.335
  36.50  24.218  23.335
  37.00  24.218  23.335
  37.50  24.192  23.366
  38.00  24.244  23.366
  38.50  24.192  23.366
  39.00  24.218  23.335
  39.50  24.218  23.396
  40.00  24.218  23.335
  40.50  24.192  23.304
  41.00  24.192  23.366
  41.50  24.244  23.366
  42.00  24.270  23.366
  42.50  24.270  23.335
  43.00  24.296  23.335
  43.50  24.270  23.366
  44.00  24.270  23.366
  44.50  24.270  23.366
  45.00  24.296  23.366
  45.50  24.296  23.335
  46.00  24.296  23.366
  46.50  24.296  23.396
  47.00  24.296  23.335
  47.51  24.296  23.366
  48.01  24.296  23.366
  48.51  24.322  23.366
  49.01  24.322  23.366
  49.51  24.322  23.366
  50.01  24.348  23.366
  50.51  24.375  23.366
  51.01  24.375  23.366
  51.51  24.427  23.366
  52.01  24.322  23.366
  52.51  24.375  23.366
  53.01  24.375  23.427
  53.51  24.375  23.366
  54.01  24.375  23.366
  54.51  24.427  23.335
  55.01  24.401  23.366
  55.51  24.401  23.366
  56.01  24.401  23.366
  56.51  24.427  23.335
  57.01  24.401  23.366
  57.51  24.427  23.366
  58.01  24.401  23.366
  58.51  24.453  23.366
  59.01  24.427  23.366
  59.51  24.453  23.366
  60.01  24.453  23.366
  60.51  24.505  23.366
  61.01  24.479  23.366
  61.51  24.479  23.427
  62.01  24.453  23.335
  62.51  24.479  23.335
  63.01  24.479  23.335
  63.51  24.453  23.335
  64.01  24.505  23.366
  64.51  24.505  23.366
  65.01  24.505  23.396
  65.51  24.505  23.396
  66.01  24.505  23.396
  66.51  24.505  23.366
  67.01  24.505  23.366
  67.51  24.531  23.427
  68.01  24.531  23.335
  68.51  24.610  23.396
  69.01  24.557  23.366
  69.51  24.610  23.366
  70.01  24.583  23.366
  70.51  24.583  23.335
  71.01  24.531  23.366
  71.51  24.583  23.396
  72.01  24.583  23.396
  72.51  24.583  23.366
  73.01  24.610  23.366
  73.51  24.636  23.396
  74.01  24.583  23.366
  74.51  24.610  23.396
  75.01  24.610  23.366
  75.51  24.636  23.335
  76.01  24.636  23.366
  76.51  24.662  23.366
  77.01  24.662  23.366
  77.51  24.610  23.335
  78.01  24.662  23.366
  78.51  24.662  23.366
  79.01  24.662  23.335
  79.51  24.714  23.366
  80.01  24.662  23.366
  80.51  24.636  23.366
  81.01  24.688  23.366
  81.51  24.688  23.335
  82.01  24.662  23.304
  82.51  24.688  23.335
  83.01  24.688  23.335
  83.51  24.688  23.366
  84.01  24.688  23.396
  84.51  24.714  23.366
  85.01  24.688  23.335
  85.51  24.714  23.396
  86.01  24.714  23.427
  86.51  24.714  23.396
  87.01  24.740  23.366
  87.51  24.740  23.427
  88.01  24.740  23.366
  88.51  24.740  23.396
  89.01  24.714  23.366
  89.51  24.740  23.427
  90.01  24.792  23.335
  90.51  24.792  23.366
  91.01  24.766  23.366
  91.51  24.792  23.396
  92.01  24.766  23.396
  92.51  24.766  23.366
  93.01  24.819  23.366
  93.51  24.819  23.366
  94.01  24.792  23.396
  94.51  24.792  23.366
  95.01  24.819  23.366
  95.51  24.819  23.366
  96.01  24.845  23.366
  96.51  24.792  23.396
  97.01  24.819  23.396
  97.51  24.819  23.396
  98.01  24.792  23.366
  98.51  24.845  23.396
  99.01  24.845  23.366
  99.51  24.871  23.396
 100.01  24.845  23.396
 100.51  24.923  23.396
 101.01  24.871  23.366
 101.51  24.871  23.366
 102.01  24.871  23.366
 102.51  24.871  23.396
 103.01  24.923  23.396
 103.51  24.897  23.366
 104.01  24.923  23.366
 104.51  24.897  23.427
 105.01  24.923  23.366
 105.51  24.923  23.427
 106.01  24.923  23.396
 106.51  24.949  23.396
 107.01  24.923  23.366
 107.51  24.923  23.427
 108.01  24.897  23.396
 108.51  24.923  23.335
 109.01  24.975  23.366
 109.51  24.949  23.396
 110.01  25.005  23.396
 110.51  24.949  23.396
 111.01  24.975  23.427
 111.51  24.975  23.396
 112.01  25.005  23.396
 112.51  24.975  23.396
 113.01  24.975  23.427
 113.51  25.005  23.396
 114.01  25.005  23.427
 114.51  24.975  23.335
 115.01  24.975  23.427
 115.51  25.114  23.427
 116.01  25.114  23.366
 116.51  25.114  23.396
 117.01  25.114  23.396
 117.51  25.222  23.396
 118.01  25.114  23.427
 118.51  25.222  23.427
 119.01  25.005  23.396
 119.51  25.222  23.396
 120.01  25.222  23.366
 120.51  25.114  23.396
 121.01  25.222  23.396
 121.51  25.222  23.427
 122.01  25.222  23.396
 122.51  25.222  23.396
 123.01  25.438  23.396
 123.51  25.222  23.396
 124.01  25.330  23.427
 124.51  25.222  23.335
 125.01  25.547  23.427
 125.51  25.438  23.427
 126.01  25.438  23.396
 126.51  25.547  23.396
 127.01  25.438  23.396
 127.51  25.438  23.396
 128.01  25.655  23.396
 128.51  25.330  23.396
 129.01  25.547  23.427
 129.51  25.547  23.458
 130.01  25.438  23.396
 130.51  25.547  23.396
 131.01  25.547  23.366
 131.51  25.547  23.427
 132.01  25.547  23.335
 132.51  25.655  23.396
 133.01  25.655  23.366
 133.51  25.871  23.366
 134.01  25.763  23.396
 134.51  25.655  23.396
 135.01  25.655  23.366
 135.51  25.763  23.396
 136.01  25.763  23.427
 136.51  25.763  23.396
 137.01  25.763  23.396
 137.51  25.871  23.396
 138.01  25.763  23.396
 138.51  25.763  23.396
 139.01  25.655  23.396
 139.51  25.871  23.335
 140.01  25.763  23.427
 140.51  25.871  23.427
 141.01  25.871  23.427
 141.51  26.088  23.396
 142.01  25.871  23.396
 142.51  25.980  23.396
 143.01  26.088  23.396
 143.51  25.980  23.427
 144.01  26.088  23.427
 144.51  26.088  23.396
 145.01  25.980  23.396
 145.51  26.088  23.396
 146.01  25.980  23.396
 146.51  26.088  23.396
 147.01  26.088  23.427
 147.51  26.088  23.427
 148.01  26.088  23.396
 148.51  26.088  23.427
 149.01  26.304  23.396
 149.51  26.304  23.427
 150.01  26.304  23.427
 150.51  26.521  23.396
 151.01  26.196  23.427
 151.51  26.196  23.396
 152.01  26.304  23.427
 152.51  26.196  23.427
 153.01  26.304  23.396
 153.51  26.413  23.396
 154.01  26.413  23.366
 154.51  26.304  23.427
 155.01  26.413  23.396
 155.51  26.521  23.396
 156.01  26.413  23.396
 156.51  26.413  23.427
 157.01  26.304  23.396
 157.51  26.304  23.396
 158.01  26.521  23.396
 158.51  26.304  23.427
 159.01  26.521  23.366
 159.51  26.521  23.427
 160.01  26.413  23.396
 160.51  26.413  23.396
 161.01  26.521  23.427
 161.51  26.413  23.396
 162.01  26.737  23.396
 162.51  26.521  23.427
 163.01  26.629  23.396
 163.51  26.846  23.366
 164.01  26.521  23.396
 164.51  26.629  23.366
 165.01  26.737  23.427
 165.51  26.629  23.427
 166.01  26.737  23.396
 166.51  26.629  23.366
 167.01  26.737  23.396
 167.51  26.737  23.427
 168.01  26.737  23.396
 168.51  26.737  23.427
 169.01  26.737  23.366
 169.51  26.954  23.396
 170.01  26.629  23.427
 170.51  26.846  23.396
 171.01  26.846  23.396
 171.52  26.846  23.427
 172.02  26.846  23.427
 172.52  26.954  23.396
 173.02  26.846  23.396
 173.52  26.737  23.396
 174.02  26.954  23.427
 174.52  26.846  23.396
 175.02  26.954  23.396
 175.52  26.954  23.427
 176.02  26.954  23.396
 176.52  27.062  23.396
 177.02  27.062  23.427
 177.52  27.062  23.458
 178.02  26.954  23.396
 178.52  27.170  23.427
 179.02  27.170  23.396
 179.52  27.062  23.427
 180.02  27.279  23.458
 180.52  27.170  23.458
 181.02  27.170  23.427
 181.52  27.170  23.427
 182.02  27.170  23.396
 182.52  27.170  23.427
 183.02  27.170  23.427
 183.52  27.170  23.427
 184.02  27.387  23.427
 184.52  27.279  23.396
 185.02  27.170  23.427
 185.52  27.279  23.427
 186.02  27.279  23.427
 186.52  27.279  23.427
 187.02  27.279  23.427
 187.52  27.279  23.427
 188.02  27.279  23.427
 188.52  27.387  23.427
 189.02  27.387  23.427
 189.52  27.170  23.427
 190.02  27.279  23.427
 190.52  27.495  23.427
 191.02  27.387  23.427
 191.52  27.279  23.458
 192.02  27.495  23.427
 192.52  27.495  23.427
 193.02  27.495  23.427
 193.52  27.712  23.427
 194.02  27.495  23.396
 194.52  27.495  23.458
 195.02  27.495  23.427
 195.52  27.603  23.396
 196.02  27.603  23.427
 196.52  27.495  23.396
 197.02  27.603  23.489
 197.52  27.712  23.396
 198.02  27.495  23.427
 198.52  27.603  23.427
 199.02  27.603  23.458
 199.52  27.712  23.427
 200.02  27.603  23.458
 200.52  27.603  23.396
 201.02  27.820  23.458
 201.52  27.712  23.396
 202.02  27.603  23.427
 202.52  27.603  23.396
 203.02  27.712  23.396
 203.52  27.712  23.427
 204.02  27.603  23.427
 204.52  27.820  23.366
 205.02  27.820  23.458
 205.52  27.820  23.427
 206.02  27.928  23.458
 206.52  27.712  23.427
 207.02  27.820  23.427
 207.52  27.820  23.396
 208.02  27.712  23.427
 208.52  27.820  23.427
 209.02  27.820  23.427
 209.52  27.928  23.396
 210.02  27.820  23.396
 210.52  27.928  23.427
 211.02  27.928  23.396
 211.52  27.928  23.396
 212.02  27.928  23.396
 212.52  28.036  23.427
 213.02  28.145  23.427
 213.52  28.036  23.427
 214.02  27.820  23.396
 214.52  27.928  23.427
 215.02  27.928  23.458
 215.52  28.145  23.458
 216.02  27.928  23.427
 216.52  28.036  23.427
 217.02  28.145  23.427
 217.52  28.036  23.427
 218.02  27.820  23.396
 218.52  28.145  23.396
 219.02  28.145  23.366
 219.52  28.145  23.427
 220.02  28.145  23.458
 220.52  28.036  23.427
 221.02  28.145  23.427
 221.52  28.145  23.396
 222.02  28.253  23.396
 222.52  28.253  23.366
 223.02  28.145  23.366
 223.52  28.145  23.396
 224.02  28.253  23.427
 224.52  28.361  23.427
 225.02  28.253  23.396
 225.52  28.253  23.427
 226.02  28.253  23.427
 226.52  28.253  23.396
 227.02  28.361  23.427
 227.52  28.253  23.396
 228.02  28.361  23.427
 228.52  28.361  23.396
 229.02  28.253  23.458
 229.52  28.361  23.396
 230.02  28.145  23.427
 230.52  28.361  23.396
 231.02  28.361  23.427
 231.52  28.145  23.427
 232.02  28.469  23.427
 232.52  28.469  23.427
 233.02  28.253  23.396
 233.52  28.469  23.427
 234.02  28.469  23.458
 234.52  28.469  23.366
 235.02  28.469  23.427
 235.52  28.578  23.427
 236.02  28.469  23.427
 236.52  28.469  23.458
 237.02  28.469  23.458
 237.52  28.578  23.427
 238.02  28.578  23.427
 238.52  28.578  23.427
 239.02  28.578  23.427
 239.52  28.578  23.427
 240.02  28.469  23.427
 240.52  28.794  23.427
 241.02  28.469  23.396
 241.52  28.686  23.427
 242.02  28.794  23.458
 242.52  28.686  23.427
 243.02  28.686  23.458
 243.52  28.794  23.427
 244.02  28.578  23.427
 244.52  28.794  23.458
 245.02  28.902  23.458
 245.52  28.686  23.427
 246.02  28.794  23.427
 246.52  28.902  23.458
 247.02  28.794  23.427
 247.52  28.902  23.427
 248.02  28.902  23.396
 248.52  28.902  23.458
 249.02  28.794  23.458
 249.52  29.011  23.458
 250.02  28.902  23.427
 250.52  28.902  23.458
 251.02  29.011  23.458
 251.52  29.011  23.396
 252.02  28.686  23.427
 252.52  29.011  23.427
 253.02  28.902  23.427
 253.52  29.011  23.427
 254.02  28.794  23.458
 254.52  29.119  23.427
 255.02  29.119  23.366
 255.52  29.011  23.427
 256.02  29.011  23.458
 256.52  28.902  23.427
 257.02  29.011  23.458
 257.52  29.011  23.427
 258.02  29.011  23.458
 258.52  29.119  23.427
 259.02  29.119  23.396
 259.52  29.011  23.427
 260.02  29.119  23.458
 260.52  29.119  23.427
 261.02  28.794  23.427
 261.52  29.335  23.458
 262.02  29.119  23.427
 262.52  29.011  23.458
 263.02  29.119  23.427
 263.52  29.119  23.396
 264.02  29.119  23.458
 264.52  29.119  23.427
 265.02  29.119  23.396
 265.52  29.119  23.427
 266.02  29.227  23.427
 266.52  29.119  23.458
 267.02  29.227  23.427
 267.52  29.227  23.458
 268.02  29.227  23.427
 268.52  29.335  23.427
 269.02  29.335  23.489
 269.52  29.335  23.427
 270.02  29.227  23.427
 270.52  29.227  23.396
 271.02  29.119  23.458
 271.52  29.552  23.427
 272.02  29.335  23.427
 272.52  29.335  23.396
 273.02  29.335  23.427
 273.52  29.335  23.427
 274.02  29.335  23.458
 274.52  29.335  23.458
 275.02  29.335  23.458
 275.52  29.444  23.427
 276.02  29.335  23.458
 276.52  29.335  23.427
 277.02  29.444  23.427
 277.52  29.444  23.427
 278.02  29.768  23.458
 278.52  29.335  23.427
 279.02  29.552  23.396
 279.52  29.444  23.458
 280.02  29.335  23.427
 280.52  29.552  23.396
 281.02  29.552  23.427
 281.52  29.552  23.427
 282.02  29.768  23.458
 282.52  29.552  23.458
 283.02  29.552  23.458
 283.52  29.552  23.458
 284.02  29.444  23.396
 284.52  29.552  23.458
 285.03  29.552  23.458
 285.53  29.660  23.489
 286.03  29.660  23.396
 286.53  29.660  23.489
 287.03  29.660  23.427
 287.53  29.552  23.458
 288.03  29.660  23.520
 288.53  29.768  23.458
 289.03  29.768  23.458
 289.53  29.768  23.458
 290.03  29.768  23.427
 290.53  29.552  23.427
 291.03  29.552  23.458
 291.53  29.768  23.489
 292.03  29.877  23.427
 292.53  29.768  23.427
 293.03  29.552  23.458
 293.53  29.768  23.427
 294.03  29.985  23.458
 294.53  29.768  23.427
 295.03  29.768  23.489
 295.53  29.768  23.427
 296.03  29.877  23.458
 296.53  29.660  23.427
 297.03  29.877  23.489
 297.53  29.877  23.427
 298.03  29.877  23.458
 298.53  29.985  23.458
 299.03  29.877  23.427
 299.53  29.877  23.427
 300.03  29.985  23.427
 300.53  29.877  23.489
 301.03  29.985  23.520
 301.53  29.985  23.458
 302.03  29.985  23.458
 302.53  29.877  23.396
 303.03  30.101  23.427
 303.53  29.985  23.427
 304.03  29.985  23.458
 304.53  29.985  23.458
 305.03  30.217  23.458
 305.53  30.101  23.458
 306.03  29.877  23.458
 306.53  30.334  23.427
 307.03  29.985  23.458
 307.53  29.985  23.489
 308.03  29.985  23.458
 308.53  30.101  23.427
 309.03  30.101  23.489
 309.53  30.101  23.458
 310.03  29.877  23.458
 310.53  30.101  23.427
 311.03  30.217  23.458
 311.53  30.101  23.427
 312.03  30.217  23.458
 312.53  30.217  23.458
 313.03  30.217  23.458
 313.53  30.217  23.458
 314.03  30.334  23.458
 314.53  30.101  23.550
 315.03  30.217  23.458
 315.53  30.217  23.427
 316.03  30.101  23.458
 316.53  30.217  23.489
 317.03  30.451  23.489
 317.53  30.451  23.427
 318.03  30.334  23.458
 318.53  30.101  23.458
 319.03  30.217  23.427
 319.53  30.217  23.458
 320.03  30.217  23.550
 320.53  30.334  23.489
 321.03  30.334  23.458
 321.53  30.334  23.458
 322.03  30.451  23.458
 322.53  30.334  23.427
 323.03  30.217  23.458
 323.53  30.334  23.489
 324.03  30.451  23.427
 324.53  30.334  23.458
 325.03  30.334  23.458
 325.53  30.568  23.427
 326.03  30.334  23.427
 326.53  30.568  23.458
 327.03  30.451  23.489
 327.53  30.451  23.427
 328.03  30.685  23.458
 328.53  30.451  23.458
 329.03  30.451  23.458
 329.53  30.334  23.489
 330.03  30.451  23.458
 330.53  30.685  23.489
 331.03  30.568  23.458
 331.53  30.451  23.458
 332.03  30.451  23.427
 332.53  30.568  23.458
 333.03  30.568  23.458
 333.53  30.685  23.458
 334.03  30.568  23.458
 334.53  30.685  23.489
 335.03  30.451  23.458
 335.53  30.451  23.458
 336.03  30.568  23.396
 336.53  30.685  23.427
 337.03  30.568  23.458
 337.53  30.685  23.458
 338.03  30.568  23.520
 338.53  30.802  23.489
 339.03  30.568  23.427
 339.53  30.802  23.458
 340.03  30.451  23.458
 340.53  30.919  23.458
 341.03  30.802  23.458
 341.53  30.568  23.458
 342.03  30.685  23.489
 342.53  30.685  23.489
 343.03  30.685  23.458
 343.53  30.685  23.458
 344.03  31.152  23.458
 344.53  30.685  23.489
 345.03  30.802  23.520
 345.53  30.802  23.489
 346.03  30.802  23.489
 346.53  30.802  23.489
 347.03  30.802  23.458
 347.53  30.685  23.458
 348.03  30.919  23.489
 348.53  30.802  23.458
 349.03  30.802  23.458
 349.53  31.152  23.458
 350.03  30.802  23.458
 350.53  30.802  23.458
 351.03  30.802  23.489
 351.53  30.919  23.458
 352.03  30.919  23.458
 352.53  30.919  23.458
 353.03  30.919  23.458
 353.53  30.919  23.427
 354.03  31.036  23.489
 354.53  31.036  23.427
 355.03  30.802  23.458
 355.53  30.685  23.489
 356.03  30.802  23.458
 356.53  31.152  23.458
 357.03  30.919  23.489
 357.53  31.152  23.458
 358.03  31.036  23.458
 358.53  31.152  23.427
 359.03  31.152  23.458
 359.53  31.036  23.489
 360.03  31.152  23.427
 360.53  31.036  23.427
 361.03  31.152  23.427
 361.53  31.036  23.520
 362.03  31.152  23.458
 362.53  31.152  23.458
 363.03  31.036  23.427
 363.53  31.152  23.458
 364.03  31.036  23.489
 364.53  31.269  23.458
 365.03  31.152  23.458
 365.53  31.269  23.458
 366.03  31.152  23.396
 366.53  31.152  23.427
 367.03  31.269  23.458
 367.53  31.152  23.458
 368.03  31.152  23.458
 368.53  31.152  23.458
 369.03  31.269  23.458
 369.53  31.152  23.458
 370.03  31.269  23.458
 370.53  31.269  23.458
 371.03  31.269  23.489
 371.53  31.269  23.489
 372.03  31.269  23.458
 372.53  31.269  23.489
 373.03  31.269  23.458
 373.53  31.152  23.489
 374.03  31.269  23.489
 374.53  31.269  23.458
 375.03  31.386  23.427
 375.53  31.269  23.427
 376.03  31.269  23.458
 376.53  31.386  23.489
 377.03  31.269  23.458
 377.53  31.269  23.458
 378.03  31.386  23.458
 378.53  31.269  23.489
 379.03  31.269  23.458
 379.53  31.386  23.458
 380.03  31.386  23.458
 380.53  31.386  23.520
 381.03  31.386  23.458
 381.53  31.503  23.458
 382.03  31.386  23.458
 382.53  31.386  23.520
 383.03  31.503  23.458
 383.53  31.620  23.458
 384.03  31.269  23.489
 384.53  31.503  23.458
 385.03  31.386  23.458
 385.53  31.386  23.489
 386.03  31.386  23.489
 386.53  31.503  23.458
 387.04  31.503  23.458
 387.54  31.620  23.427
 388.04  31.386  23.458
 388.54  31.503  23.458
 389.04  31.503  23.458
 389.54  31.737  23.427
 390.04  31.503  23.520
 390.54  31.503  23.489
 391.04  31.503  23.489
 391.54  31.620  23.520
 392.04  31.620  23.458
 392.54  31.503  23.489
 393.04  31.620  23.520
 393.54  31.620  23.458
 394.04  31.620  23.458
 394.54  31.503  23.489
 395.04  31.620  23.458
 395.54  31.620  23.458
 396.04  31.620  23.489
 396.54  31.737  23.489
 397.04  31.737  23.458
 397.54  31.620  23.550
 398.04  31.620  23.520
 398.54  31.620  23.489
 399.04  31.737  23.489
 399.54  31.620  23.458
 400.04  31.503  23.489
 400.54  31.737  23.520
 401.04  31.737  23.427
 401.54  31.737  23.489
 402.04  31.737  23.489
 402.54  31.737  23.489
 403.04  31.737  23.520
 403.54  31.854  23.489
 404.04  31.620  23.458
 404.54  31.854  23.458
 405.04  31.737  23.427
 405.54  31.737  23.489
 406.04  32.087  23.489
 406.54  31.854  23.489
 407.04  31.854  23.489
 407.54  31.854  23.458
 408.04  31.503  23.458
 408.54  31.854  23.489
 409.04  31.854  23.489
 409.54  31.854  23.520
 410.04  31.737  23.520
 410.54  31.854  23.458
 411.04  31.971  23.489
 411.54  31.854  23.458
 412.04  31.854  23.427
 412.54  31.854  23.458
 413.04  32.204  23.458
 413.54  31.854  23.520
 414.04  31.971  23.520
 414.54  32.087  23.458
 415.04  31.971  23.489
 415.54  31.854  23.520
 416.04  31.971  23.489
 416.54  31.971  23.458
 417.04  31.971  23.458
 417.54  31.971  23.489
 418.04  31.854  23.458
 418.54  32.087  23.489
 419.04  31.971  23.489
 419.54  31.971  23.458
 420.04  31.971  23.458
 420.54  32.087  23.520
 421.04  32.087  23.489
 421.54  32.087  23.520
 422.04  32.087  23.520
 422.54  32.204  23.489
 423.04  32.087  23.458
 423.54  31.971  23.458
 424.04  31.971  23.458
 424.54  31.971  23.489
 425.04  32.087  23.489
 425.54  32.087  23.489
 426.04  32.204  23.520
 426.54  32.087  23.489
 427.04  31.971  23.489
 427.54  32.087  23.489
 428.04  32.321  23.489
 428.54  32.204  23.489
 429.04  32.087  23.458
 429.54  32.204  23.458
 430.04  32.204  23.458
 430.54  32.204  23.489
 431.04  32.087  23.458
 431.54  32.204  23.520
 432.04  32.204  23.489
 432.54  32.204  23.520
 433.04  32.321  23.489
 433.54  32.204  23.489
 434.04  32.087  23.489
 434.54  32.204  23.489
 435.04  32.204  23.458
 435.54  32.321  23.489
 436.04  32.321  23.520
 436.54  32.321  23.489
 437.04  32.204  23.489
 437.54  32.321  23.458
 438.04  32.321  23.458
 438.54  32.204  23.489
 439.04  32.321  23.520
 439.54  32.087  23.489
 440.04  32.321  23.489
 440.54  32.204  23.458
 441.04  32.204  23.489
 441.54  32.321  23.489
 442.04  32.438  23.489
 442.54  32.438  23.489
 443.04  32.321  23.520
 443.54  32.438  23.520
 444.04  32.555  23.489
 444.54  32.321  23.520
 445.04  32.438  23.520
 445.54  32.438  23.520
 446.04  32.321  23.520
 446.54  32.321  23.489
 447.04  32.438  23.489
 447.54  32.438  23.520
 448.04  32.204  23.489
 448.54  32.438  23.458
 449.04  32.438  23.520
 449.54  32.438  23.520
 450.04  32.321  23.458
 450.54  32.321  23.489
 451.04  32.555  23.458
 451.54  32.438  23.489
 452.04  32.438  23.489
 452.54  32.321  23.489
 453.04  32.438  23.489
 453.54  32.438  23.458
 454.04  32.555  23.489
 454.54  32.555  23.489
 455.04  32.555  23.489
 455.54  32.555  23.489
 456.04  32.555  23.489
 456.54  32.438  23.489
 457.04  32.438  23.489
 457.54  32.555  23.489
 458.04  32.555  23.489
 458.54  32.555  23.489
 459.04  32.672  23.489
 459.54  32.438  23.489
 460.04  32.672  23.489
 460.54  32.555  23.489
 461.04  32.672  23.489
 461.54  32.672  23.489
 462.04  32.672  23.520
 462.54  32.672  23.520
 463.04  32.672  23.489
 463.54  32.555  23.489
 464.04  32.672  23.520
 464.54  32.555  23.489
 465.04  32.672  23.489
 465.54  32.672  23.520
 466.04  32.672  23.520
 466.54  32.672  23.458
 467.04  32.672  23.520
 467.54  32.672  23.458
 468.04  32.555  23.489
 468.54  32.672  23.458
 469.04  32.555  23.489
 469.54  32.789  23.520
 470.04  32.672  23.489
 470.54  32.789  23.489
 471.04  32.906  23.550
 471.54  32.789  23.489
 472.04  32.555  23.489
 472.54  32.789  23.489
 473.04  32.789  23.520
 473.54  32.789  23.489
 474.04  32.789  23.489
 474.54  32.789  23.520
 475.04  32.789  23.489
 475.54  32.906  23.489
 476.04  32.789  23.520
 476.54  32.789  23.489
 477.04  32.906  23.489
 477.54  32.789  23.489
 478.04  32.555  23.520
 478.54  33.022  23.458
 479.04  32.906  23.458
 479.54  32.789  23.520
 480.04  32.789  23.520
 480.54  32.789  23.520
 481.04  32.789  23.489
 481.54  32.906  23.458
 482.04  32.906  23.489
 482.54  32.906  23.489
 483.04  32.906  23.489
 483.54  33.022  23.520
 484.04  32.906  23.489
 484.54  32.906  23.520
 485.04  32.906  23.550
 485.54  32.906  23.520
 486.04  33.022  23.520
 486.54  33.022  23.489
 487.04  32.906  23.489
 487.54  32.906  23.520
 488.04  33.022  23.458
 488.54  32.906  23.489
 489.04  33.022  23.458
 489.54  32.906  23.489
 490.04  33.139  23.489
 490.54  32.906  23.520
 491.04  32.906  23.520
 491.54  33.022  23.520
 492.04  33.022  23.520
 492.54  33.022  23.550
 493.04  32.906  23.489
 493.54  33.022  23.520
 494.04  33.139  23.550
 494.54  33.022  23.489
 495.04  33.022  23.489
 495.54  33.022  23.520
 496.04  33.139  23.489
 496.54  33.256  23.489
 497.04  33.022  23.520
 497.54  33.256  23.489
 498.04  33.139  23.458
 498.54  33.256  23.550
 499.04  33.022  23.489
 499.54  33.139  23.520
 500.05  33.139  23.489
 500.55  33.022  23.520
 501.05  33.022  23.489
 501.55  33.022  23.489
 502.05  33.022  23.520
 502.55  33.139  23.489
 503.05  33.139  23.520
 503.55  33.022  23.520
 504.05  33.373  23.489
 504.55  33.139  23.489
 505.05  33.256  23.520
 505.55  32.906  23.489
 506.05  33.256  23.520
 506.55  33.256  23.520
 507.05  33.373  23.520
 507.55  33.256  23.520
 508.05  33.139  23.520
 508.55  33.139  23.489
 509.05  33.256  23.520
 509.55  33.256  23.489
 510.05  33.256  23.489
 510.55  33.139  23.550
 511.05  33.256  23.550
 511.55  33.139  23.489
 512.05  33.139  23.581
 512.55  33.373  23.550
 513.05  33.256  23.489
 513.55  33.256  23.520
 514.05  33.256  23.550
 514.55  33.256  23.520
 515.05  33.373  23.520
 515.55  33.373  23.520
 516.05  33.256  23.520
 516.55  33.256  23.458
 517.05  33.373  23.489
 517.55  33.373  23.520
 518.05  33.373  23.458
 518.55  33.373  23.520
 519.05  33.373  23.489
 519.55  33.373  23.489
 520.05  33.256  23.520
 520.55  33.373  23.520
 521.05  33.139  23.520
 521.55  33.373  23.581
 522.05  33.373  23.489
 522.55  33.373  23.520
 523.05  33.490  23.550
 523.55  33.490  23.520
 524.05  33.022  23.489
 524.55  33.256  23.520
 525.05  33.490  23.550
 525.55  33.490  23.489
 526.05  33.373  23.489
 526.55  33.373  23.489
 527.05  33.373  23.489
 527.55  33.490  23.520
 528.05  33.373  23.489
 528.55  33.373  23.458
 529.05  33.607  23.489
 529.55  33.841  23.520
 530.05  33.373  23.520
 530.55  33.607  23.520
 531.05  33.490  23.520
 531.55  33.490  23.489
 532.05  33.490  23.520
 532.55  33.607  23.520
 533.05  33.373  23.520
 533.55  33.490  23.520
 534.05  33.490  23.550
 534.55  33.490  23.489
 535.05  33.607  23.520
 535.55  33.490  23.520
 536.05  33.724  23.520
 536.55  33.490  23.550
 537.05  33.490  23.550
 537.55  33.607  23.581
 538.05  33.490  23.489
 538.55  33.607  23.550
 539.05  33.490  23.520
 539.55  33.490  23.520
 540.05  33.607  23.520
 540.55  33.490  23.520
 541.05  33.607  23.489
 541.55  33.607  23.520
 542.05  33.724  23.489
 542.55  33.724  23.520
 543.05  33.607  23.489
 543.55  33.607  23.520
 544.05  33.724  23.520
 544.55  33.607  23.520
 545.05  33.724  23.458
 545.55  33.607  23.550
 546.05  33.724  23.520
 546.55  33.607  23.520
 547.05  33.607  23.520
 547.55  33.724  23.489
 548.05  33.841  23.550
 548.55  33.724  23.520
 549.05  33.724  23.581
 549.55  33.724  23.520
 550.05  33.724  23.520
 550.55  33.724  23.550
 551.05  33.724  23.520
 551.55  33.841  23.520
 552.05  33.724  23.520
 552.55  33.841  23.550
 553.05  33.724  23.520
 553.55  33.724  23.520
 554.05  33.724  23.612
 554.55  33.841  23.520
 555.05  33.724  23.550
 555.55  33.607  23.520
 556.05  33.607  23.550
 556.55  33.841  23.520
 557.05  33.841  23.520
 557.55  33.607  23.489
 558.05  33.841  23.550
 558.55  33.724  23.520
 559.05  33.957  23.520
 559.55  33.841  23.520
 560.05  33.841  23.550
 560.55  33.841  23.520
 561.05  33.841  23.520
 561.55  33.841  23.581
 562.05  33.724  23.520
 562.55  33.957  23.520
 563.05  33.841  23.520
 563.55  33.957  23.520
 564.05  33.957  23.520
 564.55  33.957  23.520
 565.05  33.957  23.520
 565.55  33.957  23.612
 566.05  33.957  23.550
 566.55  33.957  23.520
 567.05  33.841  23.550
 567.55  33.957  23.550
 568.05  33.957  23.520
 568.55  33.957  23.520
 569.05  33.957  23.520
 569.55  33.841  23.520
 570.05  33.841  23.520
 570.55  33.841  23.550
 571.05  33.957  23.489
 571.55  33.957  23.520
 572.05  33.957  23.550
 572.55  34.074  23.550
 573.05  33.841  23.427
 573.55  33.957  23.520
 574.05  33.957  23.550
 574.55  33.841  23.550
 575.05  34.074  23.581
 575.55  33.957  23.489
 576.05  33.841  23.520
 576.55  33.841  23.520
 577.05  33.957  23.520
 577.55  34.074  23.489
 578.05  34.074  23.550
 578.55  34.074  23.489
 579.05  34.074  23.550
 579.55  33.957  23.550
 580.05  34.074  23.520
 580.55  33.841  23.520
 581.05  34.074  23.550
 581.55  33.957  23.520
 582.05  33.957  23.581
 582.55  34.074  23.550
 583.05  34.074  23.550
 583.55  34.074  23.520
 584.05  34.074  23.550
 584.55  34.074  23.520
 585.05  34.074  23.520
 585.55  34.074  23.581
 586.05  34.191  23.550
 586.55  34.191  23.550
 587.05  34.191  23.520
 587.55  34.074  23.520
 588.05  34.191  23.581
 588.55  34.074  23.520
 589.05  34.074  23.489
 589.55  34.191  23.550
 590.05  34.191  23.550
 590.55  34.191  23.520
 591.05  34.308  23.520
 591.55  34.191  23.550
 592.05  34.074  23.520
 592.55  33.957  23.520
 593.05  34.074  23.520
 593.55  34.074  23.520
 594.05  34.074  23.520
 594.55  34.191  23.458
 595.05  34.074  23.550
 595.55  34.191  23.520
 596.05  34.191  23.489
 596.55  34.191  23.550
 597.05  34.308  23.520
 597.55  34.191  23.520
 598.05  34.191  23.520
 598.55  34.191  23.581
 599.05  34.308  23.520
 599.55  34.191  23.550
 600.05  34.308  23.550
 600.55  34.191  23.550
 601.05  34.191  23.550
 601.55  34.308  23.550
 602.05  34.191  23.550
 602.55  34.191  23.520
 603.05  34.191  23.520
 603.55  34.191  23.550
 604.05  34.191  23.550
 604.55  34.308  23.550
 605.05  34.425  23.520
 605.55  34.074  23.550
 606.05  34.308  23.550
 606.55  34.308  23.489
 607.05  34.308  23.550
 607.55  34.191  23.458
 608.05  34.308  23.520
 608.55  34.425  23.520
 609.05  34.542  23.520
 609.55  34.308  23.520
 610.05  34.308  23.520
 610.55  34.308  23.520
 611.05  34.425  23.520
 611.55  34.425  23.520
 612.05  34.308  23.550
 612.55  34.308  23.581
 613.05  34.425  23.550
 613.55  34.425  23.550
 614.05  34.425  23.520
 614.55  34.425  23.550
 615.05  34.308  23.581
 615.55  34.425  23.489
 616.05  34.308  23.550
 616.55  34.425  23.581
 617.05  34.425  23.550
 617.55  34.308  23.550
 618.05  34.542  23.550
 618.55  34.542  23.550
 619.05  34.425  23.520
 619.55  34.425  23.550
 620.05  34.542  23.550
 620.55  34.425  23.550
 621.05  34.425  23.520
 621.55  34.425  23.520
 622.05  34.425  23.550
 622.55  34.542  23.520
 623.05  34.308  23.550
 623.55  34.542  23.489
 624.05  34.308  23.520
 624.56  34.542  23.550
 625.06  34.542  23.520
 625.56  34.542  23.550
 626.06  34.542  23.550
 626.56  34.425  23.550
 627.06  34.542  23.520
 627.56  34.425  23.550
 628.06  34.776  23.550
 628.56  34.542  23.520
 629.06  34.425  23.550
 629.56  34.542  23.520
 630.06  34.542  23.550
 630.56  34.542  23.550
 631.06  34.425  23.550
 631.56  34.542  23.550
 632.06  34.659  23.520
 632.56  34.776  23.520
 633.06  34.542  23.520
 633.56  34.542  23.550
 634.06  34.659  23.550
 634.56  34.659  23.581
 635.06  34.542  23.550
 635.56  34.542  23.550
 636.06  34.542  23.550
 636.56  34.542  23.520
 637.06  34.659  23.550
 637.56  34.659  23.550
 638.06  34.776  23.550
 638.56  34.776  23.550
 639.06  34.659  23.581
 639.56  34.542  23.550
 640.06  34.659  23.612
 640.56  34.659  23.581
 641.06  34.659  23.550
 641.56  34.659  23.550
 642.06  34.776  23.581
 642.56  34.659  23.550
 643.06  34.659  23.550
 643.56  34.659  23.550
 644.06  34.659  23.550
 644.56  34.659  23.581
 645.06  34.659  23.581
 645.56  34.659  23.550
 646.06  34.542  23.520
 646.56  34.659  23.581
 647.06  34.776  23.581
 647.56  34.659  23.550
 648.06  34.659  23.612
 648.56  34.776  23.550
 649.06  34.776  23.520
 649.56  34.776  23.612
 650.06  34.776  23.550
 650.56  34.776  23.612
 651.06  34.776  23.550
 651.56  34.776  23.581
 652.06  34.776  23.581
 652.56  34.892  23.581
 653.06  34.776  23.581
 653.56  34.892  23.550
 654.06  34.776  23.581
 654.56  34.776  23.520
 655.06  34.776  23.550
 655.56  34.659  23.643
 656.06  34.776  23.581
 656.56  34.892  23.550
 657.06  34.776  23.550
 657.56  34.776  23.550
 658.06  34.776  23.550
 658.56  34.776  23.520
 659.06  34.892  23.581
 659.56  34.892  23.550
 660.06  34.776  23.520
 660.56  34.776  23.550
 661.06  34.892  23.550
 661.56  34.776  23.550
 662.06  34.776  23.550
 662.56  34.892  23.581
 663.06  34.776  23.550
 663.56  34.892  23.520
 664.06  35.005  23.581
 664.56  34.892  23.550
 665.06  34.892  23.520
 665.56  34.776  23.550
 666.06  34.776  23.550
 666.56  34.776  23.612
 667.06  35.069  23.550
 667.56  34.892  23.550
 668.06  34.892  23.550
 668.56  35.069  23.520
 669.06  34.892  23.581
 669.56  34.776  23.581
 670.06  34.892  23.550
 670.56  34.892  23.550
 671.06  34.892  23.550
 671.56  34.892  23.550
 672.06  35.005  23.581
 672.56  35.069  23.581
 673.06  34.892  23.550
 673.56  35.005  23.581
 674.06  35.069  23.550
 674.56  34.892  23.581
 675.06  34.892  23.550
 675.56  35.005  23.550
 676.06  35.005  23.612
 676.56  34.892  23.550
 677.06  34.776  23.550
 677.56  35.005  23.520
 678.06  35.005  23.581
 678.56  35.005  23.550
 679.06  34.892  23.550
 679.56  35.005  23.550
 680.06  35.005  23.612
 680.56  35.069  23.550
 681.06  35.005  23.581
 681.56  34.892  23.550
 682.06  35.005  23.581
 682.56  35.005  23.581
 683.06  35.005  23.550
 683.56  34.892  23.581
 684.06  35.069  23.550
 684.56  35.005  23.520
 685.06  35.069  23.612
 685.56  35.133  23.550
 686.06  35.005  23.581
 686.56  35.069  23.581
 687.06  35.069  23.612
 687.56  35.005  23.550
 688.06  35.069  23.550
 688.56  35.133  23.520
 689.06  35.069  23.581
 689.56  35.069  23.550
 690.06  35.069  23.550
 690.56  35.069  23.581
 691.06  35.069  23.550
 691.56  35.005  23.581
 692.06  35.005  23.550
 692.56  35.069  23.550
 693.06  35.133  23.581
 693.56  35.005  23.581
 694.06  35.069  23.550
 694.56  35.069  23.520
 695.06  35.133  23.581
 695.56  35.069  23.550
 696.06  35.069  23.550
 696.56  35.133  23.550
 697.06  35.005  23.550
 697.56  35.133  23.550
 698.06  35.069  23.550
 698.56  35.197  23.550
 699.06  35.133  23.550
 699.56  35.197  23.612
 700.06  35.133  23.581
 700.56  35.069  23.581
 701.06  35.069  23.550
 701.56  35.133  23.550
 702.06  35.069  23.581
 702.56  35.005  23.550
 703.06  35.133  23.581
 703.56  35.133  23.550
 704.06  35.197  23.550
 704.56  35.133  23.550
 705.06  35.069  23.581
 705.56  35.069  23.581
 706.06  35.133  23.581
 706.56  35.197  23.581
 707.06  35.133  23.581
 707.56  35.133  23.612
 708.06  35.197  23.612
 708.56  35.197  23.581
 709.06  35.197  23.581
 709.56  35.069  23.489
 710.06  35.133  23.581
 710.56  35.133  23.612
 711.06  35.133  23.581
 711.56  35.133  23.550
 712.06  35.069  23.581
 712.56  35.197  23.581
 713.06  35.197  23.581
 713.56  35.133  23.550
 714.06  35.133  23.550
 714.56  35.197  23.581
 715.06  35.069  23.550
 715.56  35.133  23.581
 716.06  35.261  23.581
 716.56  35.133  23.550
 717.06  35.133  23.581
 717.56  35.197  23.612
 718.06  35.197  23.550
 718.56  35.261  23.581
 719.06  35.133  23.581
 719.56  35.197  23.550
 720.06  35.197  23.581
 720.56  35.197  23.550
 721.06  35.197  23.550
 721.56  35.197  23.581
 722.06  35.261  23.581
 722.56  35.197  23.581
 723.06  35.197  23.581
 723.56  35.197  23.581
 724.06  35.197  23.581
 724.56  35.133  23.581
 725.06  35.261  23.581
 725.56  35.133  23.581
 726.06  35.261  23.612
 726.57  35.261  23.581
 727.07  35.261  23.581
 727.57  35.325  23.550
 728.07  35.325  23.612
 728.57  35.261  23.581
 729.07  35.197  23.581
 729.57  35.325  23.643
 730.07  35.261  23.581
 730.57  35.261  23.612
 731.07  35.261  23.612
 731.57  35.261  23.581
 732.07  35.261  23.643
 732.57  35.261  23.612
 733.07  35.261  23.581
 733.57  35.197  23.581
 734.07  35.197  23.520
 734.57  35.197  23.581
 735.07  35.261  23.550
 735.57  35.261  23.550
 736.07  35.261  23.612
 736.57  35.325  23.581
 737.07  35.261  23.581
 737.57  35.261  23.612
 738.07  35.325  23.550
 738.57  35.325  23.581
 739.07  35.261  23.581
 739.57  35.325  23.612
 740.07  35.325  23.581
 740.57  35.261  23.581
 741.07  35.325  23.550
 741.57  35.261  23.550
 742.07  35.261  23.581
 742.57  35.261  23.612
 743.07  35.325  23.581
 743.57  35.261  23.612
 744.07  35.261  23.581
 744.57  35.325  23.612
 745.07  35.325  23.612
 745.57  35.325  23.612
 746.07  35.261  23.550
 746.57  35.261  23.550
 747.07  35.261  23.550
 747.57  35.261  23.612
 748.07  35.261  23.550
 748.57  35.325  23.581
 749.07  35.261  23.581
 749.57  35.325  23.550
 750.07  35.261  23.581
 750.57  35.261  23.581
 751.07  35.325  23.612
 751.57  35.389  23.550
 752.07  35.389  23.581
 752.57  35.261  23.581
 753.07  35.389  23.581
 753.57  35.389  23.581
 754.07  35.325  23.581
 754.57  35.325  23.612
 755.07  35.325  23.581
 755.57  35.325  23.581
 756.07  35.325  23.581
 756.57  35.261  23.581
 757.07  35.261  23.612
 757.57  35.453  23.581
 758.07  35.453  23.612
 758.57  35.325  23.612
 759.07  35.389  23.581
 759.57  35.389  23.612
 760.07  35.389  23.612
 760.57  35.325  23.581
 761.07  35.389  23.550
 761.57  35.453  23.581
 762.07  35.517  23.581
 762.57  35.453  23.643
 763.07  35.389  23.581
 763.57  35.325  23.581
 764.07  35.389  23.581
 764.57  35.389  23.581
 765.07  35.389  23.581
 765.57  35.389  23.520
 766.07  35.453  23.581
 766.57  35.389  23.581
 767.07  35.453  23.581
 767.57  35.453  23.581
 768.07  35.389  23.612
 768.57  35.581  23.581
 769.07  35.389  23.581
 769.57  35.517  23.581
 770.07  35.453  23.643
 770.57  35.389  23.581
 771.07  35.453  23.581
 771.57  35.517  23.550
 772.07  35.453  23.581
 772.57  35.389  23.612
 773.07  35.517  23.612
 773.57  35.453  23.612
 774.07  35.389  23.612
 774.57  35.453  23.612
 775.07  35.453  23.612
 775.57  35.453  23.581
 776.07  35.453  23.581
 776.57  35.453  23.581
 777.07  35.453  23.581
 777.57  35.517  23.612
 778.07  35.517  23.581
 778.57  35.453  23.612
 779.07  35.453  23.612
 779.57  35.517  23.581
 780.07  35.453  23.612
 780.57  35.517  23.612
 781.07  35.453  23.550
 781.57  35.645  23.612
 782.07  35.453  23.581
 782.57  35.517  23.612
 783.07  35.453  23.612
 783.57  35.517  23.643
 784.07  35.517  23.612
 784.57  35.517  23.612
 785.07  35.453  23.581
 785.57  35.517  23.612
 786.07  35.389  23.581
 786.57  35.517  23.643
 787.07  35.453  23.612
 787.57  35.517  23.612
 788.07  35.581  23.612
 788.57  35.517  23.643
 789.07  35.453  23.581
 789.57  35.453  23.581
 790.07  35.453  23.581
 790.57  35.517  23.612
 791.07  35.581  23.581
 791.57  35.517  23.612
 792.07  35.581  23.581
 792.57  35.517  23.643
 793.07  35.517  23.581
 793.57  35.517  23.612
 794.07  35.581  23.612
 794.57  35.517  23.612
 795.07  35.517  23.581
 795.57  35.517  23.612
 796.07  35.581  23.581
 796.57  35.453  23.581
 797.07  35.581  23.612
 797.57  35.517  23.550
 798.07  35.581  23.581
 798.57  35.389  23.550
 799.07  35.517  23.612
 799.57  35.517  23.612
 800.07  35.517  23.612
 800.57  35.581  23.612
 801.07  35.581  23.612
 801.57  35.581  23.550
 802.07  35.581  23.612
 802.57  35.581  23.581
 803.07  35.581  23.612
 803.57  35.581  23.612
 804.07  35.581  23.612
 804.57  35.581  23.612
 805.07  35.581  23.612
 805.57  35.581  23.643
 806.07  35.517  23.612
 806.57  35.517  23.581
 807.07  35.581  23.612
 807.57  35.645  23.581
 808.07  35.581  23.581
 808.57  35.645  23.674
 809.07  35.645  23.550
 809.57  35.581  23.581
 810.07  35.581  23.612
 810.57  35.581  23.612
 811.07  35.581  23.612
 811.57  35.645  23.612
 812.07  35.645  23.612
 812.57  35.645  23.612
 813.07  35.645  23.612
 813.57  35.645  23.612
 814.07  35.645  23.643
 814.57  35.645  23.581
 815.07  35.645  23.643
 815.57  35.645  23.612
 816.07  35.709  23.643
 816.57  35.645  23.612
 817.07  35.645  23.612
 817.57  35.645  23.643
 818.07  35.645  23.612
 818.57  35.645  23.643
 819.07  35.517  23.643
 819.57  35.709  23.581
 820.07  35.645  23.612
 820.57  35.645  23.612
 821.07  35.581  23.612
 821.57  35.645  23.674
 822.07  35.645  23.643
 822.57  35.645  23.581
 823.07  35.709  23.581
 823.57  35.709  23.550
 824.07  35.709  23.643
 824.57  35.645  23.612
 825.07  35.645  23.612
 825.57  35.645  23.612
 826.07  35.645  23.612
 826.57  35.581  23.612
 827.07  35.645  23.612
 827.57  35.645  23.612
 828.07  35.709  23.612
 828.57  35.709  23.581
 829.07  35.645  23.550
 829.57  35.709  23.643
 830.07  35.645  23.581
 830.57  35.645  23.581
 831.07  35.709  23.643
 831.57  35.645  23.612
 832.07  35.709  23.581
 832.57  35.645  23.612
 833.07  35.709  23.612
 833.57  35.645  23.612
 834.07  35.709  23.612
 834.57  35.709  23.612
 835.07  35.709  23.581
 835.57  35.709  23.581
 836.07  35.645  23.581
 836.57  35.645  23.612
 837.07  35.709  23.581
 837.57  35.645  23.612
 838.07  35.517  23.581
 838.57  35.709  23.612
 839.07  35.837  23.643
 839.58  35.773  23.581
 840.08  35.645  23.581
 840.58  35.709  23.612
 841.08  35.709  23.612
 841.58  35.709  23.581
 842.08  35.709  23.581
 842.58  35.709  23.612
 843.08  35.709  23.612
 843.58  35.773  23.612
 844.08  35.709  23.612
 844.58  35.709  23.581
 845.08  35.709  23.643
 845.58  35.773  23.581
 846.08  35.773  23.705
 846.58  35.773  23.643
 847.08  35.773  23.643
 847.58  35.709  23.643
 848.08  35.709  23.612
 848.58  35.837  23.612
 849.08  35.773  23.643
 849.58  35.773  23.643
 850.08  35.709  23.612
 850.58  35.773  23.643
 851.08  35.709  23.643
 851.58  35.837  23.581
 852.08  35.709  23.643
 852.58  35.709  23.612
 853.08  35.709  23.643
 853.58  35.645  23.612
 854.08  35.773  23.612
 854.58  35.709  23.612
 855.08  35.773  23.612
 855.58  35.773  23.581
 856.08  35.709  23.643
 856.58  35.773  23.612
 857.08  35.773  23.643
 857.58  35.773  23.612
 858.08  35.709  23.643
 858.58  35.837  23.643
 859.08  35.709  23.612
 859.58  35.645  23.612
 860.08  35.773  23.612
 860.58  35.837  23.674
 861.08  35.773  23.581
 861.58  35.773  23.643
 862.08  35.773  23.643
 862.58  35.773  23.643
 863.08  35.837  23.643
 863.58  35.901  23.612
 864.08  35.837  23.643
 864.58  35.773  23.612
 865.08  35.837  23.612
 865.58  35.837  23.612
 866.08  35.773  23.612
 866.58  35.837  23.643
 867.08  35.837  23.612
 867.58  35.837  23.612
 868.08  35.709  23.612
 868.58  35.837  23.643
 869.08  35.901  23.581
 869.58  35.709  23.612
 870.08  35.837  23.643
 870.58  35.837  23.612
 871.08  35.773  23.612
 871.58  35.837  23.581
 872.08  35.837  23.581
 872.58  35.901  23.643
 873.08  35.837  23.612
 873.58  35.709  23.612
 874.08  35.837  23.643
 874.58  35.837  23.643
 875.08  35.901  23.612
 875.58  35.773  23.612
 876.08  35.837  23.612
 876.58  35.901  23.612
 877.08  35.837  23.643
 877.58  35.901  23.612
 878.08  35.965  23.643
 878.58  35.901  23.643
 879.08  35.901  23.612
 879.58  35.837  23.612
 880.08  35.773  23.612
 880.58  35.773  23.612
 881.08  35.837  23.643
 881.58  35.773  23.612
 882.08  35.837  23.705
 882.58  35.837  23.612
 883.08  35.901  23.674
 883.58  35.773  23.612
 884.08  35.837  23.612
 884.58  35.901  23.581
 885.08  35.837  23.643
 885.58  35.837  23.581
 886.08  35.901  23.674
 886.58  35.901  23.643
 887.08  35.901  23.643
 887.58  35.901  23.643
 888.08  35.901  23.674
 888.58  35.901  23.612
 889.08  35.901  23.612
 889.58  35.837  23.643
 890.08  35.837  23.612
 890.58  35.773  23.643
 891.08  35.901  23.612
 891.58  35.901  23.612
 892.08  35.965  23.643
 892.58  35.901  23.643
 893.08  35.965  23.705
 893.58  35.901  23.643
 894.08  35.837  23.643
 894.58  35.965  23.643
 895.08  35.901  23.643
 895.58  35.901  23.612
 896.08  35.965  23.612
 896.58  35.901  23.643
 897.08  35.965  23.643
 897.58  35.901  23.643
 898.08  35.965  23.612
 898.58  35.901  23.643
 899.08  35.965  23.643
 899.58  35.965  23.643
 900.08  35.965  23.643
 900.58  35.965  23.612
 901.08  36.029  23.643
 901.58  36.029  23.643
 902.08  35.965  23.612
 902.58  35.965  23.643
 903.08  35.965  23.643
 903.58  35.965  23.643
 904.08  35.965  23.643
 904.58  35.965  23.674
 905.08  36.029  23.643
 905.58  35.901  23.643
 906.08  35.965  23.643
 906.58  35.965  23.643
 907.08  35.965  23.643
 907.58  35.901  23.643
 908.08  35.965  23.674
 908.58  36.157  23.643
 909.08  36.157  23.643
 909.58  36.029  23.643
 910.08  35.965  23.643
 910.58  35.965  23.643
 911.08  35.965  23.643
 911.58  35.965  23.643
 912.08  36.029  23.643
 912.58  36.029  23.674
 913.08  35.965  23.643
 913.58  36.093  23.705
 914.08  36.029  23.643
 914.58  36.029  23.674
 915.08  35.965  23.612
 915.58  36.029  23.643
 916.08  35.965  23.643
 916.58  36.093  23.643
 917.08  35.965  23.643
 917.58  36.029  23.674
 918.08  36.029  23.674
 918.58  36.029  23.674
 919.08  36.029  23.643
 919.58  36.029  23.643
 920.08  36.029  23.643
 920.58  36.029  23.643
 921.08  35.965  23.643
 921.58  36.093  23.643
 922.08  36.093  23.674
 922.58  36.029  23.612
 923.08  36.029  23.674
 923.58  36.029  23.674
 924.08  36.029  23.674
 924.58  36.029  23.643
 925.08  36.029  23.643
 925.58  36.029  23.674
 926.08  35.965  23.643
 926.58  36.029  23.674
 927.08  36.029  23.643
 927.58  35.965  23.674
 928.08  36.093  23.643
 928.58  36.029  23.643
 929.08  36.093  23.643
 929.58  36.029  23.643
 930.08  36.093  23.643
 930.58  36.029  23.674
 931.08  36.029  23.612
 931.58  36.221  23.643
 932.08  36.093  23.643
 932.58  35.965  23.643
 933.08  36.029  23.643
 933.58  35.965  23.612
 934.08  35.965  23.643
 934.58  35.965  23.674
 935.08  36.093  23.705
 935.58  36.029  23.674
 936.08  36.093  23.674
 936.58  36.221  23.674
 937.08  36.029  23.643
 937.58  36.093  23.643
 938.08  36.093  23.674
 938.58  36.093  23.643
 939.08  36.093  23.674
 939.58  36.093  23.612
 940.08  35.965  23.643
 940.58  36.029  23.643
 941.08  36.093  23.643
 941.58  36.093  23.643
 942.08  36.093  23.612
 942.58  36.029  23.674
 943.08  36.157  23.643
 943.58  36.093  23.674
 944.08  36.157  23.643
 944.58  36.093  23.643
 945.08  36.029  23.643
 945.58  36.093  23.643
 946.08  36.093  23.643
 946.58  36.093  23.674
 947.08  36.093  23.643
 947.58  36.093  23.705
 948.08  36.157  23.674
 948.58  36.093  23.643
 949.08  36.093  23.674
 949.58  36.029  23.674
 950.08  36.093  23.674
 950.58  36.221  23.705
 951.08  36.093  23.674
 951.58  36.157  23.674
 952.08  36.093  23.612
 952.58  36.221  23.674
 953.09  36.029  23.643
 953.59  36.093  23.643
 954.09  36.093  23.643
 954.59  36.157  23.643
 955.09  36.157  23.643
 955.59  36.157  23.674
 956.09  36.157  23.674
 956.59  36.157  23.643
 957.09  36.093  23.643
 957.59  36.093  23.705
 958.09  36.157  23.643
 958.59  36.093  23.674
 959.09  36.221  23.643
 959.59  36.093  23.705
 960.09  36.157  23.643
 960.59  36.285  23.674
 961.09  36.221  23.643
 961.59  36.157  23.674
 962.09  36.157  23.643
 962.59  36.157  23.643
 963.09  36.093  23.674
 963.59  36.157  23.674
 964.09  36.157  23.643
 964.59  36.157  23.643
 965.09  36.157  23.705
 965.59  36.221  23.612
 966.09  36.157  23.612
 966.59  36.093  23.674
 967.09  36.221  23.674
 967.59  36.157  23.643
 968.09  36.157  23.643
 968.59  36.221  23.643
 969.09  36.157  23.643
 969.59  36.285  23.705
 970.09  36.157  23.674
 970.59  36.221  23.674
 971.09  36.221  23.674
 971.59  36.157  23.612
 972.09  36.221  23.674
 972.59  36.221  23.674
 973.09  36.157  23.674
 973.59  36.157  23.674
 974.09  36.221  23.705
 974.59  36.221  23.674
 975.09  36.221  23.674
 975.59  36.221  23.643
 976.09  36.157  23.705
 976.59  36.285  23.643
 977.09  36.221  23.612
 977.59  36.157  23.643
 978.09  36.221  23.674
 978.59  36.221  23.643
 979.09  36.157  23.643
 979.59  36.221  23.674
 980.09  36.285  23.674
 980.59  36.221  23.674
 981.09  36.157  23.643
 981.59  36.221  23.674
 982.09  36.157  23.643
 982.59  36.285  23.674
 983.09  36.221  23.674
 983.59  36.413  23.643
 984.09  36.285  23.674
 984.59  36.221  23.643
 985.09  36.221  23.705
 985.59  36.157  23.643
 986.09  36.221  23.674
 986.59  36.221  23.643
 987.09  36.221  23.643
 987.59  36.221  23.643
 988.09  36.285  23.674
 988.59  36.285  23.674
 989.09  36.157  23.612
 989.59  36.221  23.674
 990.09  36.221  23.674
 990.59  36.285  23.674
 991.09  36.221  23.705
 991.59  36.221  23.674
 992.09  36.221  23.643
 992.59  36.349  23.643
 993.09  36.349  23.674
 993.59  36.285  23.674
 994.09  36.285  23.674
 994.59  36.285  23.612
 995.09  36.285  23.674
 995.59  36.221  23.643
 996.09  36.285  23.674
 996.59  36.285  23.674
 997.09  36.285  23.674
 997.59  36.221  23.705
 998.09  36.413  23.643
 998.59  36.349  23.705
 999.09  36.285  23.674
 999.59  36.285  23.766
1000.09  36.221  23.674
1000.59  36.285  23.705
1001.09  36.349  23.643
1001.59  36.285  23.674
1002.09  36.285  23.674
1002.59  36.285  23.674
1003.09  36.285  23.674
1003.59  36.285  23.674
1004.09  36.349  23.705
1004.59  36.349  23.735
1005.09  36.349  23.674
1005.59  36.285  23.674
1006.09  36.285  23.705
1006.59  36.285  23.705
1007.09  36.349  23.705
1007.59  36.221  23.643
1008.09  36.349  23.643
1008.59  36.349  23.643
1009.09  36.285  23.643
1009.59  36.349  23.674
1010.09  36.285  23.674
1010.59  36.285  23.643
1011.09  36.285  23.674
1011.59  36.221  23.705
1012.09  36.349  23.643
1012.59  36.413  23.674
1013.09  36.349  23.674
1013.59  36.413  23.674
1014.09  36.349  23.705
1014.59  36.349  23.674
1015.09  36.285  23.643
1015.59  36.349  23.674
1016.09  36.413  23.674
1016.59  36.349  23.674
1017.09  36.349  23.674
1017.59  36.285  23.674
1018.09  36.349  23.643
1018.59  36.285  23.705
1019.09  36.349  23.674
1019.59  36.285  23.674
1020.09  36.349  23.674
1020.59  36.349  23.674
1021.09  36.349  23.705
1021.59  36.413  23.674
1022.09  36.413  23.674
1022.59  36.349  23.674
1023.09  36.349  23.674
1023.59  36.349  23.643
1024.09  36.349  23.643
1024.59  36.349  23.674
1025.09  36.413  23.674
1025.59  36.477  23.705
1026.09  36.349  23.643
1026.59  36.413  23.674
1027.09  36.477  23.643
1027.59  36.349  23.705
1028.09  36.541  23.674
1028.59  36.477  23.674
1029.09  36.541  23.674
1029.59  36.413  23.735
1030.09  36.413  23.674
1030.59  36.541  23.674
1031.09  36.413  23.643
1031.59  36.413  23.643
1032.09  36.349  23.643
1032.59  36.413  23.674
1033.09  36.413  23.705
1033.59  36.349  23.674
1034.09  36.477  23.643
1034.59  36.477  23.674
1035.09  36.477  23.674
1035.59  36.413  23.674
1036.09  36.477  23.674
1036.59  36.413  23.674
1037.09  36.477  23.705
1037.59  36.477  23.705
1038.09  36.477  23.674
1038.59  36.413  23.674
1039.09  36.413  23.674
1039.59  36.477  23.674
1040.09  36.477  23.643
1040.59  36.477  23.674
1041.09  36.477  23.705
1041.59  36.413  23.674
1042.09  36.477  23.705
1042.59  36.477  23.674
1043.09  36.413  23.674
1043.59  36.477  23.674
1044.09  36.477  23.705
1044.59  36.477  23.674
1045.09  36.477  23.674
1045.59  36.541  23.643
1046.09  36.477  23.674
1046.59  36.541  23.674
1047.09  36.541  23.735
1047.59  36.477  23.674
1048.09  36.477  23.705
1048.59  36.541  23.674
1049.09  36.477  23.705
1049.59  36.541  23.643
1050.09  36.477  23.674
1050.59  36.477  23.674
1051.09  36.605  23.674
1051.59  36.541  23.674
1052.09  36.541  23.674
1052.59  36.477  23.674
1053.09  36.413  23.705
1053.59  36.413  23.735
1054.09  36.541  23.674
1054.59  36.541  23.705
1055.09  36.541  23.674
1055.59  36.413  23.674
1056.09  36.477  23.705
1056.59  36.541  23.674
1057.09  36.541  23.705
1057.59  36.541  23.674
1058.09  36.541  23.705
1058.59  36.541  23.674
1059.09  36.541  23.674
1059.59  36.477  23.705
1060.09  36.541  23.705
1060.59  36.541  23.705
1061.09  36.477  23.705
1061.59  36.605  23.674
1062.09  36.541  23.674
1062.59  36.541  23.705
1063.09  36.541  23.705
1063.59  36.669  23.705
1064.09  36.541  23.705
1064.59  36.605  23.705
1065.09  36.541  23.735
1065.59  36.605  23.674
1066.10  36.477  23.705
1066.60  36.541  23.674
1067.10  36.605  23.735
1067.60  36.541  23.705
1068.10  36.605  23.674
1068.60  36.605  23.674
1069.10  36.541  23.674
1069.60  36.669  23.674
1070.10  36.605  23.705
1070.60  36.541  23.735
1071.10  36.605  23.705
1071.60  36.605  23.766
1072.10  36.605  23.705
1072.60  36.605  23.674
1073.10  36.605  23.705
1073.60  36.541  23.705
1074.10  36.605  23.674
1074.60  36.605  23.674
1075.10  36.605  23.705
1075.60  36.605  23.705
1076.10  36.605  23.705
1076.60  36.605  23.705
1077.10  36.605  23.705
1077.60  36.669  23.705
1078.10  36.605  23.674
1078.60  36.605  23.674
1079.10  36.605  23.674
1079.60  36.605  23.705
1080.10  36.669  23.735
1080.60  36.733  23.705
1081.10  36.605  23.643
1081.60  36.669  23.705
1082.10  36.605  23.735
1082.60  36.605  23.643
1083.10  36.605  23.705
1083.60  36.669  23.705
1084.10  36.669  23.674
1084.60  36.605  23.674
1085.10  36.669  23.705
1085.60  36.605  23.705
1086.10  36.733  23.674
1086.60  36.605  23.674
1087.10  36.605  23.674
1087.60  36.605  23.674
1088.10  36.669  23.705
1088.60  36.669  23.674
1089.10  36.605  23.735
1089.60  36.605  23.643
1090.10  36.669  23.674
1090.60  36.669  23.674
1091.10  36.605  23.735
1091.60  36.669  23.705
1092.10  36.669  23.705
1092.60  36.733  23.674
1093.10  36.605  23.705
1093.60  36.669  23.735
1094.10  36.733  23.674
1094.60  36.669  23.705
1095.10  36.669  23.674
1095.60  36.861  23.705
1096.10  36.605  23.705
1096.60  36.605  23.705
1097.10  36.669  23.705
1097.60  36.669  23.705
1098.10  36.669  23.735
1098.60  36.733  23.705
1099.10  36.669  23.705
1099.60  36.669  23.735
1100.10  36.733  23.735
1100.60  36.669  23.705
1101.10  36.733  23.735
1101.60  36.669  23.674
1102.10  36.605  23.705
1102.60  36.733  23.735
1103.10  36.733  23.705
1103.60  36.669  23.705
1104.10  36.669  23.705
1104.60  36.669  23.705
1105.10  36.669  23.674
1105.60  36.733  23.705
1106.10  36.669  23.674
1106.60  36.605  23.674
1107.10  36.669  23.705
1107.60  36.733  23.674
1108.10  36.605  23.705
1108.60  36.797  23.705
1109.10  36.733  23.705
1109.60  36.669  23.735
1110.10  36.669  23.705
1110.60  36.733  23.674
1111.10  36.669  23.705
1111.60  36.733  23.705
1112.10  36.733  23.705
1112.60  36.669  23.766
1113.10  36.669  23.705
1113.60  36.669  23.735
1114.10  36.733  23.735
1114.60  36.733  23.705
1115.10  36.733  23.735
1115.60  36.733  23.674
1116.10  36.861  23.735
1116.60  36.669  23.766
1117.10  36.797  23.705
1117.60  36.733  23.705
1118.10  36.733  23.674
1118.60  36.989  23.735
1119.10  36.733  23.735
1119.60  36.605  23.705
1120.10  36.733  23.735
1120.60  36.733  23.705
1121.10  36.733  23.674
1121.60  36.733  23.735
1122.10  36.669  23.705
1122.60  36.733  23.705
1123.10  36.797  23.705
1123.60  36.797  23.674
1124.10  36.797  23.705
1124.60  36.797  23.705
1125.10  36.797  23.705
1125.60  36.797  23.705
1126.10  36.861  23.705
1126.60  36.733  23.705
1127.10  36.797  23.735
1127.60  36.797  23.705
1128.10  36.733  23.735
1128.60  36.733  23.705
1129.10  36.797  23.735
1129.60  36.797  23.674
1130.10  36.797  23.705
1130.60  36.733  23.735
1131.10  36.925  23.674
1131.60  36.797  23.705
1132.10  36.861  23.735
1132.60  36.797  23.735
1133.10  36.861  23.705
1133.60  36.861  23.766
1134.10  36.861  23.766
1134.60  36.861  23.674
1135.10  36.861  23.705
1135.60  36.861  23.735
1136.10  36.861  23.705
1136.60  36.925  23.735
1137.10  36.925  23.735
1137.60  36.925  23.705
1138.10  36.861  23.735
1138.60  36.797  23.705
1139.10  36.797  23.766
1139.60  36.925  23.735
1140.10  36.861  23.735
1140.60  36.861  23.705
1141.10  36.861  23.674
1141.60  36.861  23.735
1142.10  36.925  23.705
1142.60  36.925  23.705
1143.10  36.861  23.705
1143.60  36.861  23.735
1144.10  36.861  23.705
1144.60  36.925  23.705
1145.10  36.989  23.705
1145.60  36.925  23.705
1146.10  36.925  23.766
1146.60  36.925  23.705
1147.10  36.925  23.735
1147.60  36.861  23.735
1148.10  36.925  23.735
1148.60  36.925  23.705
1149.10  36.797  23.735
1149.60  36.925  23.705
1150.10  36.925  23.735
1150.60  36.925  23.705
1151.10  36.925  23.735
1151.60  36.925  23.705
1152.10  36.925  23.674
1152.60  36.925  23.766
1153.10  36.925  23.705
1153.60  36.861  23.735
1154.10  36.925  23.735
1154.60  36.861  23.735
1155.10  36.925  23.735
1155.60  36.925  23.735
1156.10  36.989  23.705
1156.60  36.925  23.735
1157.10  36.925  23.705
1157.60  36.989  23.735
1158.10  36.925  23.705
1158.60  36.925  23.705
1159.10  36.925  23.735
1159.60  36.925  23.705
1160.10  36.925  23.705
1160.60  36.861  23.735
1161.10  36.925  23.735
1161.60  36.925  23.735
1162.10  36.925  23.705
1162.60  36.925  23.735
1163.10  36.925  23.735
1163.60  36.989  23.705
1164.10  36.925  23.735
1164.60  36.925  23.735
1165.10  36.925  23.705
1165.60  36.925  23.674
1166.10  36.925  23.705
1166.60  36.925  23.766
1167.10  36.989  23.705
1167.60  36.925  23.705
1168.10  36.989  23.705
1168.60  36.925  23.735
1169.10  36.925  23.735
1169.60  36.989  23.705
1170.10  36.925  23.705
1170.60  36.925  23.735
1171.10  36.925  23.735
1171.60  36.925  23.705
1172.10  36.989  23.674
1172.60  36.989  23.735
1173.10  36.989  23.674
1173.60  36.925  23.705
1174.10  36.989  23.735
1174.60  36.989  23.735
1175.10  36.989  23.705
1175.60  36.925  23.705
1176.10  36.925  23.705
1176.60  36.925  23.705
1177.10  36.989  23.766
1177.60  36.925  23.735
1178.10  36.989  23.735
1178.60  36.989  23.735
1179.11  36.925  23.735
1179.61  36.989  23.705
1180.11  36.989  23.766
1180.61  37.053  23.705
1181.11  36.989  23.735
1181.61  36.989  23.735
1182.11  36.989  23.766
1182.61  36.925  23.735
1183.11  36.989  23.705
1183.61  37.053  23.735
1184.11  36.989  23.735
1184.61  36.989  23.735
1185.11  36.989  23.735
1185.61  36.989  23.735
1186.11  36.989  23.705
1186.61  36.925  23.705
1187.11  36.989  23.705
1187.61  36.989  23.735
1188.11  36.989  23.705
1188.61  36.989  23.705
1189.11  36.861  23.674
1189.61  36.989  23.735
1190.11  37.053  23.735
1190.61  36.989  23.705
1191.11  37.053  23.735
1191.61  36.989  23.705
1192.11  37.053  23.735
1192.61  36.989  23.705
1193.11  37.053  23.735
1193.61  36.989  23.735
1194.11  36.989  23.735
1194.61  36.989  23.735
1195.11  37.053  23.705
1195.61  37.053  23.705
1196.11  36.925  23.705
1196.61  36.989  23.705
1197.11  36.989  23.735
1197.61  36.989  23.766
1198.11  36.989  23.674
1198.61  36.989  23.735
1199.11  37.053  23.735
1199.61  37.053  23.766
1200.11  37.053  23.735
1200.61  36.989  23.766
1201.11  36.989  23.735
1201.61  37.053  23.735
1202.11  37.117  23.735
1202.61  37.053  23.797
1203.11  36.989  23.735
1203.61  37.053  23.674
1204.11  37.053  23.735
1204.61  37.117  23.735
1205.11  37.053  23.735
1205.61  37.053  23.766
1206.11  37.053  23.705
1206.61  36.925  23.766
1207.11  37.053  23.705
1207.61  37.053  23.735
1208.11  37.053  23.735
1208.61  37.053  23.735
1209.11  37.053  23.735
1209.61  36.989  23.735
1210.11  37.053  23.735
1210.61  37.053  23.735
1211.11  36.989  23.735
1211.61  37.053  23.735
1212.11  36.989  23.705
1212.61  37.053  23.735
1213.11  37.053  23.735
1213.61  36.989  23.705
1214.11  37.053  23.735
1214.61  37.053  23.766
1215.11  36.989  23.766
1215.61  36.989  23.735
1216.11  37.053  23.735
1216.61  37.053  23.735
1217.11  37.053  23.797
1217.61  37.117  23.735
1218.11  37.117  23.705
1218.61  37.053  23.735
1219.11  37.117  23.766
1219.61  37.117  23.735
1220.11  37.053  23.705
1220.61  37.053  23.735
1221.11  37.053  23.705
1221.61  37.117  23.705
1222.11  37.053  23.766
1222.61  37.117  23.766
1223.11  37.053  23.735
1223.61  37.117  23.735
1224.11  37.053  23.735
1224.61  37.181  23.735
1225.11  37.053  23.705
1225.61  36.989  23.735
1226.11  37.053  23.797
1226.61  37.053  23.735
1227.11  37.053  23.766
1227.61  37.053  23.735
1228.11  37.117  23.705
1228.61  37.117  23.705
1229.11  37.053  23.735
1229.61  37.117  23.766
1230.11  37.117  23.766
1230.61  37.117  23.735
1231.11  37.117  23.735
1231.61  37.181  23.735
1232.11  37.117  23.766
1232.61  37.117  23.735
1233.11  37.053  23.705
1233.61  37.117  23.705
1234.11  37.117  23.766
1234.61  37.117  23.766
1235.11  37.117  23.766
1235.61  37.117  23.766
1236.11  37.053  23.735
1236.61  37.181  23.735
1237.11  37.053  23.735
1237.61  37.117  23.766
1238.11  37.117  23.735
1238.61  37.181  23.766
1239.11  37.117  23.735
1239.61  37.117  23.735
1240.11  37.053  23.735
1240.61  37.117  23.766
1241.11  37.117  23.766
1241.61  37.053  23.735
1242.11  36.989  23.735
1242.61  37.117  23.735
1243.11  36.989  23.735
1243.61  37.181  23.735
1244.11  37.181  23.735
1244.61  37.117  23.705
1245.11  37.181  23.735
1245.61  37.053  23.766
1246.11  37.053  23.735
1246.61  37.117  23.766
1247.11  37.053  23.735
1247.61  37.181  23.766
1248.11  37.117  23.705
1248.61  37.181  23.797
1249.11  37.117  23.735
1249.61  37.181  23.735
1250.11  37.053  23.766
1250.61  37.117  23.766
1251.11  37.117  23.766
1251.61  37.181  23.766
1252.11  37.117  23.766
1252.61  37.181  23.735
1253.11  37.117  23.705
1253.61  37.181  23.766
1254.11  37.117  23.705
1254.61  37.181  23.797
1255.11  37.181  23.766
1255.61  37.117  23.735
1256.11  37.181  23.797
1256.61  37.117  23.766
1257.11  37.181  23.705
1257.61  37.053  23.766
1258.11  37.181  23.797
1258.61  37.181  23.766
1259.11  37.181  23.797
1259.61  37.245  23.735
1260.11  37.181  23.797
1260.61  37.245  23.766
1261.11  37.117  23.766
1261.61  37.117  23.735
1262.11  37.181  23.735
1262.61  37.181  23.859
1263.11  37.181  23.766
1263.61  37.117  23.735
1264.11  37.181  23.766
1264.61  37.181  23.735
1265.11  37.181  23.766
1265.61  37.309  23.735
1266.11  37.181  23.766
1266.61  37.117  23.766
1267.11  37.181  23.766
1267.61  37.181  23.735
1268.11  37.181  23.766
1268.61  37.117  23.766
1269.11  37.117  23.797
1269.61  37.181  23.766
1270.11  37.181  23.766
1270.61  37.181  23.766
1271.11  37.181  23.828
1271.61  37.181  23.797
1272.11  37.181  23.797
1272.61  37.117  23.766
1273.11  37.245  23.735
1273.61  37.181  23.735
1274.11  37.181  23.766
1274.61  37.181  23.766
1275.11  37.181  23.797
1275.61  37.181  23.766
1276.11  37.181  23.766
1276.61  37.245  23.735
1277.11  37.117  23.766
1277.61  37.181  23.766
1278.11  37.181  23.766
1278.61  37.181  23.766
1279.11  37.245  23.797
1279.61  37.245  23.766
1280.11  37.117  23.766
1280.61  37.309  23.766
1281.11  37.181  23.766
1281.61  37.181  23.766
1282.11  37.181  23.735
1282.61  37.245  23.766
1283.11  37.181  23.766
1283.61  37.181  23.735
1284.11  37.181  23.766
1284.61  37.245  23.766
1285.11  37.181  23.766
1285.61  37.181  23.735
1286.11  37.245  23.797
1286.61  37.309  23.797
1287.11  37.309  23.735
1287.61  37.181  23.766
1288.11  37.245  23.735
1288.61  37.245  23.766
1289.11  37.181  23.766
1289.61  37.245  23.766
1290.11  37.181  23.735
1290.61  37.245  23.766
1291.11  37.181  23.766
1291.61  37.245  23.766
1292.12  37.245  23.828
1292.62  37.245  23.766
1293.12  37.245  23.735
1293.62  37.181  23.766
1294.12  37.181  23.766
1294.62  37.245  23.766
1295.12  37.245  23.766
1295.62  37.245  23.766
1296.12  37.245  23.797
1296.62  37.245  23.766
1297.12  37.245  23.766
1297.62  37.245  23.766
1298.12  37.245  23.766
1298.62  37.245  23.766
1299.12  37.245  23.766
1299.62  37.245  23.766
1300.12  37.245  23.766
1300.62  37.309  23.828
1301.12  37.245  23.766
1301.62  37.309  23.766
1302.12  37.181  23.797
1302.62  37.245  23.766
1303.12  37.181  23.766
1303.62  37.181  23.766
1304.12  37.117  23.735
1304.62  37.245  23.766
1305.12  37.309  23.797
1305.62  37.245  23.797
1306.12  37.245  23.766
1306.62  37.245  23.797
1307.12  37.181  23.828
1307.62  37.309  23.766
1308.12  37.245  23.766
1308.62  37.245  23.735
1309.12  37.181  23.766
1309.62  37.181  23.766
1310.12  37.309  23.797
1310.62  37.373  23.766
1311.12  37.309  23.766
1311.62  37.245  23.766
1312.12  37.245  23.797
1312.62  37.245  23.766
1313.12  37.181  23.766
1313.62  37.245  23.766
1314.12  37.245  23.766
1314.62  37.245  23.797
1315.12  37.245  23.766
1315.62  37.245  23.797
1316.12  37.245  23.797
1316.62  37.309  23.828
1317.12  37.309  23.766
1317.62  37.309  23.766
1318.12  37.245  23.766
1318.62  37.309  23.766
1319.12  37.245  23.735
1319.62  37.245  23.766
1320.12  37.309  23.797
1320.62  37.245  23.766
1321.12  37.245  23.766
1321.62  37.245  23.797
1322.12  37.309  23.766
1322.62  37.309  23.766
1323.12  37.309  23.766
1323.62  37.245  23.766
1324.12  37.245  23.766
1324.62  37.373  23.766
1325.12  37.245  23.766
1325.62  37.437  23.735
1326.12  37.309  23.766
1326.62  37.309  23.797
1327.12  37.309  23.797
1327.62  37.309  23.797
1328.12  37.437  23.735
1328.62  37.373  23.766
1329.12  37.245  23.797
1329.62  37.245  23.797
1330.12  37.309  23.735
1330.62  37.309  23.766
1331.12  37.309  23.766
1331.62  37.373  23.766
1332.12  37.309  23.797
1332.62  37.309  23.766
1333.12  37.309  23.766
1333.62  37.245  23.766
1334.12  37.309  23.797
1334.62  37.309  23.797
1335.12  37.373  23.797
1335.62  37.309  23.797
1336.12  37.309  23.766
1336.62  37.245  23.797
1337.12  37.245  23.766
1337.62  37.309  23.766
1338.12  37.309  23.766
1338.62  37.245  23.766
1339.12  37.309  23.735
1339.62  37.309  23.766
1340.12  37.309  23.766
1340.62  37.373  23.766
1341.12  37.309  23.797
1341.62  37.373  23.766
1342.12  37.245  23.797
1342.62  37.373  23.766
1343.12  37.245  23.735
1343.62  37.373  23.797
1344.12  37.373  23.797
1344.62  37.373  23.766
1345.12  37.309  23.766
1345.62  37.309  23.797
1346.12  37.309  23.797
1346.62  37.309  23.828
1347.12  37.373  23.797
1347.62  37.373  23.766
1348.12  37.309  23.766
1348.62  37.373  23.797
1349.12  37.373  23.766
1349.62  37.309  23.797
1350.12  37.373  23.797
1350.62  37.373  23.797
1351.12  37.565  23.797
1351.62  37.373  23.766
1352.12  37.309  23.797
1352.62  37.309  23.797
1353.12  37.373  23.797
1353.62  37.309  23.797
1354.12  37.437  23.797
1354.62  37.245  23.797
1355.12  37.309  23.797
1355.62  37.309  23.797
1356.12  37.373  23.766
1356.62  37.181  23.797
1357.12  37.309  23.735
1357.62  37.373  23.797
1358.12  37.437  23.797
1358.62  37.501  23.797
1359.12  37.373  23.797
1359.62  37.309  23.766
1360.12  37.309  23.797
1360.62  37.373  23.797
1361.12  37.373  23.766
1361.62  37.373  23.766
1362.12  37.309  23.797
1362.62  37.245  23.797
1363.12  37.309  23.828
1363.62  37.373  23.797
1364.12  37.309  23.828
1364.62  37.373  23.797
1365.12  37.309  23.797
1365.62  37.373  23.797
1366.12  37.437  23.766
1366.62  37.309  23.797
1367.12  37.373  23.797
1367.62  37.373  23.766
1368.12  37.373  23.735
1368.62  37.373  23.797
1369.12  37.373  23.766
1369.62  37.373  23.828
1370.12  37.437  23.766
1370.62  37.309  23.735
1371.12  37.437  23.797
1371.62  37.437  23.797
1372.12  37.373  23.797
1372.62  37.373  23.797
1373.12  37.373  23.797
1373.62  37.309  23.766
1374.12  37.373  23.797
1374.62  37.437  23.828
1375.12  37.373  23.766
1375.62  37.437  23.797
1376.12  37.437  23.859
1376.62  37.437  23.797
1377.12  37.373  23.797
1377.62  37.373  23.797
1378.12  37.373  23.766
1378.62  37.437  23.797
1379.12  37.373  23.766
1379.62  37.501  23.797
1380.12  37.373  23.828
1380.62  37.373  23.797
1381.12  37.309  23.735
1381.62  37.373  23.797
1382.12  37.373  23.766
1382.62  37.373  23.889
1383.12  37.373  23.797
1383.62  37.373  23.797
1384.12  37.373  23.828
1384.62  37.373  23.828
1385.12  37.373  23.797
1385.62  37.373  23.766
1386.12  37.181  23.766
1386.62  37.373  23.797
1387.12  37.437  23.766
1387.62  37.437  23.828
1388.12  37.373  23.766
1388.62  37.309  23.797
1389.12  37.437  23.797
1389.62  37.373  23.797
1390.12  37.437  23.797
1390.62  37.437  23.828
1391.12  37.373  23.797
1391.62  37.373  23.828
1392.12  37.373  23.828
1392.62  37.437  23.797
1393.12  37.437  23.797
1393.62  37.437  23.828
1394.12  37.437  23.797
1394.62  37.437  23.828
1395.12  37.437  23.797
1395.62  37.373  23.797
1396.12  37.437  23.797
1396.62  37.373  23.828
1397.12  37.437  23.797
1397.62  37.501  23.766
1398.12  37.437  23.828
1398.62  37.437  23.828
1399.12  37.565  23.797
1399.62  37.437  23.828
1400.12  37.501  23.797
1400.62  37.437  23.828
1401.12  37.309  23.797
1401.62  37.437  23.797
1402.12  37.437  23.828
1402.62  37.437  23.797
1403.12  37.501  23.828
1403.62  37.501  23.828
1404.12  37.437  23.828
1404.62  37.437  23.797
1405.12  37.437  23.797
1405.62  37.373  23.797
1406.12  37.373  23.797
1406.62  37.437  23.797
1407.12  37.437  23.797
1407.62  37.437  23.797
1408.12  37.437  23.828
1408.62  37.437  23.797
1409.12  37.437  23.797
1409.62  37.437  23.828
1410.12  37.437  23.797
1410.62  37.437  23.797
1411.12  37.309  23.828
1411.62  37.437  23.828
1412.12  37.437  23.828
1412.62  37.437  23.828
1413.12  37.437  23.797
1413.62  37.373  23.797
1414.12  37.437  23.828
1414.62  37.437  23.828
1415.12  37.437  23.797
1415.62  37.501  23.797
1416.13  37.501  23.797
1416.63  37.373  23.828
1417.13  37.437  23.828
1417.63  37.437  23.797
1418.13  37.501  23.797
1418.63  37.437  23.828
1419.13  37.437  23.797
1419.63  37.501  23.797
1420.13  37.501  23.797
1420.63  37.437  23.797
1421.13  37.437  23.797
1421.63  37.373  23.828
1422.13  37.501  23.828
1422.63  37.437  23.797
1423.13  37.501  23.828
1423.63  37.437  23.797
1424.13  37.501  23.797
1424.63  37.501  23.797
1425.13  37.501  23.797
1425.63  37.437  23.828
1426.13  37.437  23.828
1426.63  37.437  23.797
1427.13  37.501  23.828
1427.63  37.437  23.828
1428.13  37.437  23.797
1428.63  37.501  23.797
1429.13  37.501  23.797
1429.63  37.437  23.797
1430.13  37.501  23.797
1430.63  37.501  23.797
1431.13  37.373  23.797
1431.63  37.501  23.766
1432.13  37.501  23.797
1432.63  37.437  23.797
1433.13  37.565  23.797
1433.63  37.437  23.797
1434.13  37.437  23.797
1434.63  37.501  23.828
1435.13  37.501  23.797
1435.63  37.501  23.828
1436.13  37.501  23.828
1436.63  37.501  23.797
1437.13  37.501  23.828
1437.63  37.501  23.828
1438.13  37.501  23.828
1438.63  37.501  23.828
1439.13  37.501  23.828
1439.63  37.501  23.797
1440.13  37.629  23.859
1440.63  37.501  23.766
1441.13  37.437  23.828
1441.63  37.501  23.797
1442.13  37.437  23.828
1442.63  37.565  23.797
1443.13  37.629  23.828
1443.63  37.501  23.797
1444.13  37.565  23.766
1444.63  37.501  23.828
1445.13  37.629  23.859
1445.63  37.437  23.828
1446.13  37.501  23.828
1446.63  37.501  23.828
1447.13  37.501  23.828
1447.63  37.501  23.828
1448.13  37.501  23.766
1448.63  37.501  23.828
1449.13  37.501  23.797
1449.63  37.501  23.797
1450.13  37.501  23.828
1450.63  37.501  23.859
1451.13  37.565  23.859
1451.63  37.501  23.828
1452.13  37.501  23.828
1452.63  37.629  23.797
1453.13  37.501  23.859
1453.63  37.501  23.797
1454.13  37.501  23.797
1454.63  37.565  23.828
1455.13  37.565  23.828
1455.63  37.501  23.797
1456.13  37.501  23.828
1456.63  37.565  23.859
1457.13  37.565  23.828
1457.63  37.501  23.797
1458.13  37.565  23.828
1458.63  37.437  23.828
1459.13  37.565  23.797
1459.63  37.565  23.797
1460.13  37.565  23.797
1460.63  37.565  23.828
1461.13  37.565  23.797
1461.63  37.501  23.797
1462.13  37.565  23.797
1462.63  37.501  23.828
1463.13  37.501  23.828
1463.63  37.501  23.828
1464.13  37.501  23.797
1464.63  37.565  23.828
1465.13  37.501  23.828
1465.63  37.565  23.797
1466.13  37.437  23.828
1466.63  37.501  23.828
1467.13  37.501  23.828
1467.63  37.437  23.859
1468.13  37.565  23.859
1468.63  37.565  23.859
1469.13  37.565  23.828
1469.63  37.757  23.828
1470.13  37.565  23.828
1470.63  37.501  23.828
1471.13  37.565  23.889
1471.63  37.565  23.828
1472.13  37.565  23.859
1472.63  37.501  23.797
1473.13  37.565  23.828
1473.63  37.501  23.828
1474.13  37.565  23.797
1474.63  37.565  23.859
1475.13  37.501  23.828
1475.63  37.565  23.828
1476.13  37.565  23.797
1476.63  37.565  23.797
1477.13  37.565  23.797
1477.63  37.501  23.859
1478.13  37.501  23.859
1478.63  37.565  23.797
1479.13  37.501  23.828
1479.63  37.437  23.859
1480.13  37.565  23.828
1480.63  37.565  23.828
1481.13  37.629  23.828
1481.63  37.565  23.828
1482.13  37.565  23.797
1482.63  37.565  23.859
1483.13  37.501  23.828
1483.63  37.565  23.828
1484.13  37.501  23.828
1484.63  37.565  23.828
1485.13  37.565  23.797
1485.63  37.565  23.828
1486.13  37.501  23.828
1486.63  37.565  23.859
1487.13  37.565  23.828
1487.63  37.565  23.828
1488.13  37.565  23.828
1488.63  37.565  23.797
1489.13  37.693  23.828
1489.63  37.565  23.828
1490.13  37.693  23.797
1490.63  37.501  23.828
1491.13  37.501  23.828
1491.63  37.565  23.828
1492.13  37.565  23.859
1492.63  37.693  23.828
1493.13  37.565  23.797
1493.63  37.565  23.828
1494.13  37.565  23.828
1494.63  37.565  23.828
1495.13  37.693  23.828
1495.63  37.629  23.797
1496.13  37.501  23.828
1496.63  37.693  23.797
1497.13  37.565  23.797
1497.63  37.565  23.828
1498.13  37.565  23.859
1498.63  37.565  23.828
1499.13  37.629  23.828
1499.63  37.693  23.828
1500.13  37.565  23.828
1500.63  37.629  23.828
1501.13  37.565  23.828
1501.63  37.629  23.859
1502.13  37.565  23.828
1502.63  37.693  23.859
1503.13  37.565  23.797
1503.63  37.565  23.828
1504.13  37.629  23.859
1504.63  37.565  23.828
1505.13  37.565  23.859
1505.63  37.629  23.828
1506.13  37.565  23.828
1506.63  37.629  23.797
1507.13  37.693  23.828
1507.63  37.565  23.859
1508.13  37.565  23.828
1508.63  37.565  23.828
1509.13  37.629  23.859
1509.63  37.501  23.859
1510.13  37.565  23.828
1510.63  37.629  23.920
1511.13  37.629  23.859
1511.63  37.565  23.828
1512.13  37.629  23.859
1512.63  37.565  23.828
1513.13  37.565  23.859
1513.63  37.629  23.828
1514.13  37.629  23.766
1514.63  37.565  23.828
1515.13  37.565  23.859
1515.63  37.629  23.828
1516.13  37.629  23.828
1516.63  37.693  23.859
1517.13  37.629  23.859
1517.63  37.693  23.828
1518.13  37.629  23.828
1518.63  37.629  23.828
1519.13  37.629  23.828
1519.63  37.693  23.859
1520.13  37.629  23.797
1520.63  37.629  23.828
1521.13  37.693  23.797
1521.63  37.565  23.859
1522.13  37.693  23.889
1522.63  37.565  23.828
1523.13  37.629  23.828
1523.63  37.629  23.889
1524.13  37.629  23.828
1524.63  37.629  23.828
1525.13  37.629  23.797
1525.63  37.629  23.859
1526.13  37.629  23.859
1526.63  37.757  23.859
1527.13  37.565  23.859
1527.63  37.629  23.828
1528.13  37.693  23.859
1528.63  37.757  23.859
1529.13  37.629  23.859
1529.64  37.629  23.859
1530.14  37.757  23.859
1530.64  37.693  23.859
1531.14  37.693  23.828
1531.64  37.693  23.859
1532.14  37.629  23.859
1532.64  37.629  23.859
1533.14  37.565  23.889
1533.64  37.629  23.859
1534.14  37.629  23.828
1534.64  37.629  23.828
1535.14  37.629  23.859
1535.64  37.693  23.828
1536.14  37.629  23.828
1536.64  37.629  23.828
1537.14  37.629  23.828
1537.64  37.629  23.828
1538.14  37.629  23.828
1538.64  37.629  23.859
1539.14  37.629  23.859
1539.64  37.693  23.828
1540.14  37.693  23.828
1540.64  37.693  23.828
1541.14  37.757  23.828
1541.64  37.629  23.828
1542.14  37.693  23.828
1542.64  37.693  23.828
1543.14  37.693  23.889
1543.64  37.757  23.859
1544.14  37.757  23.859
1544.64  37.693  23.859
1545.14  37.693  23.920
1545.64  37.629  23.859
1546.14  37.693  23.859
1546.64  37.693  23.828
1547.14  37.757  23.859
1547.64  37.629  23.828
1548.14  37.693  23.828
1548.64  37.757  23.859
1549.14  37.693  23.828
1549.64  37.693  23.828
1550.14  37.693  23.859
1550.64  37.693  23.859
1551.14  37.693  23.828
1551.64  37.693  23.859
1552.14  37.693  23.828
1552.64  37.693  23.859
1553.14  37.629  23.828
1553.64  37.821  23.859
1554.14  37.629  23.828
1554.64  37.693  23.859
1555.14  37.693  23.828
1555.64  37.693  23.859
1556.14  37.693  23.859
1556.64  37.693  23.859
1557.14  37.629  23.828
1557.64  37.693  23.828
1558.14  37.693  23.859
1558.64  37.693  23.828
1559.14  37.693  23.859
1559.64  37.693  23.828
1560.14  37.693  23.828
1560.64  37.693  23.859
1561.14  37.693  23.828
1561.64  37.693  23.859
1562.14  37.757  23.828
1562.64  37.757  23.828
1563.14  37.693  23.859
1563.64  37.693  23.859
1564.14  37.629  23.859
1564.64  37.757  23.859
1565.14  37.757  23.859
1565.64  37.693  23.828
1566.14  37.693  23.859
1566.64  37.693  23.797
1567.14  37.757  23.828
1567.64  37.693  23.889
1568.14  37.693  23.859
1568.64  37.693  23.859
1569.14  37.693  23.920
1569.64  37.693  23.859
1570.14  37.757  23.828
1570.64  37.693  23.859
1571.14  37.693  23.859
1571.64  37.693  23.889
1572.14  37.693  23.859
1572.64  37.693  23.920
1573.14  37.693  23.859
1573.64  37.693  23.859
1574.14  37.693  23.828
1574.64  37.693  23.859
1575.14  37.693  23.859
1575.64  37.629  23.828
1576.14  37.693  23.828
1576.64  37.693  23.889
1577.14  37.693  23.859
1577.64  37.757  23.828
1578.14  37.693  23.859
1578.64  37.693  23.828
1579.14  37.693  23.859
1579.64  37.629  23.859
1580.14  37.693  23.889
1580.64  37.757  23.859
1581.14  37.693  23.889
1581.64  37.885  23.889
1582.14  37.757  23.859
1582.64  37.757  23.859
1583.14  37.757  23.828
1583.64  37.693  23.859
1584.14  37.757  23.859
1584.64  37.693  23.889
1585.14  37.693  23.859
1585.64  37.757  23.859
1586.14  37.693  23.859
1586.64  37.693  23.859
1587.14  37.757  23.859
1587.64  37.757  23.828
1588.14  37.757  23.828
1588.64  37.693  23.859
1589.14  37.757  23.859
1589.64  37.757  23.859
1590.14  37.693  23.859
1590.64  37.757  23.859
1591.14  37.757  23.859
1591.64  37.693  23.859
1592.14  37.757  23.828
1592.64  37.693  23.828
1593.14  37.693  23.889
1593.64  37.757  23.828
1594.14  37.693  23.859
1594.64  37.757  23.889
1595.14  37.757  23.859
1595.64  37.757  23.828
1596.14  37.757  23.828
1596.64  37.757  23.859
1597.14  37.693  23.889
1597.64  37.757  23.859
1598.14  37.821  23.859
1598.64  37.757  23.859
1599.14  37.693  23.859
1599.64  37.757  23.859
1600.14  37.757  23.859
1600.64  37.757  23.889
1601.14  37.757  23.859
1601.64  37.693  23.859
1602.14  37.757  23.859
1602.64  37.693  23.828
1603.14  37.693  23.859
1603.64  37.757  23.889
1604.14  37.821  23.828
1604.64  37.757  23.889
1605.14  37.757  23.859
1605.64  37.693  23.828
1606.14  37.757  23.889
1606.64  37.757  23.859
1607.14  37.757  23.859
1607.64  37.757  23.859
1608.14  37.821  23.859
1608.64  37.693  23.859
1609.14  37.693  23.859
1609.64  37.821  23.828
1610.14  37.693  23.859
1610.64  37.757  23.828
1611.14  37.821  23.859
1611.64  37.821  23.859
1612.14  37.693  23.889
1612.64  37.821  23.859
1613.14  37.821  23.828
1613.64  37.757  23.859
1614.14  37.757  23.859
1614.64  37.757  23.889
1615.14  37.757  23.889
1615.64  37.757  23.889
1616.14  37.757  23.889
1616.64  37.821  23.859
1617.14  37.693  23.859
1617.64  37.821  23.859
1618.14  37.757  23.828
1618.64  37.757  23.889
1619.14  37.757  23.889
1619.64  37.693  23.859
1620.14  37.757  23.889
1620.64  37.693  23.859
1621.14  37.757  23.859
1621.64  37.821  23.859
1622.14  37.821  23.859
1622.64  37.693  23.889
1623.14  37.757  23.889
1623.64  37.693  23.828
1624.14  37.757  23.859
1624.64  37.757  23.859
1625.14  37.757  23.797
1625.64  37.757  23.859
1626.14  37.885  23.920
1626.64  37.757  23.859
1627.14  37.757  23.889
1627.64  37.885  23.828
1628.14  37.757  23.859
1628.64  37.821  23.920
1629.14  37.757  23.889
1629.64  37.757  23.889
1630.14  37.757  23.889
1630.64  37.821  23.859
1631.14  37.821  23.859
1631.64  37.821  23.828
1632.14  37.757  23.889
1632.64  37.757  23.859
1633.14  37.757  23.859
1633.64  37.757  23.889
1634.14  37.821  23.889
1634.64  37.821  23.859
1635.14  37.821  23.889
1635.64  37.821  23.889
1636.14  37.885  23.889
1636.64  37.757  23.859
1637.14  37.821  23.859
1637.64  37.821  23.889
1638.14  37.821  23.859
1638.64  37.757  23.889
1639.14  37.821  23.889
1639.64  37.885  23.859
1640.14  37.757  23.859
1640.64  37.821  23.889
1641.14  37.821  23.859
1641.64  37.821  23.889
1642.14  37.821  23.889
1642.65  37.949  23.859
1643.15  37.821  23.889
1643.65  37.821  23.889
1644.15  37.821  23.889
1644.65  37.821  23.859
1645.15  37.885  23.859
1645.65  37.757  23.889
1646.15  37.821  23.889
1646.65  37.821  23.889
1647.15  37.821  23.859
1647.65  37.693  23.859
1648.15  37.821  23.859
1648.65  37.821  23.889
1649.15  37.821  23.889
1649.65  37.821  23.859
1650.15  37.885  23.859
1650.65  37.821  23.828
1651.15  37.885  23.859
1651.65  37.757  23.828
1652.15  37.821  23.889
1652.65  37.821  23.859
1653.15  37.821  23.859
1653.65  37.885  23.889
1654.15  37.821  23.920
1654.65  37.821  23.920
1655.15  37.757  23.889
1655.65  37.821  23.889
1656.15  37.821  23.889
1656.65  37.821  23.920
1657.15  37.821  23.889
1657.65  37.821  23.920
1658.15  37.757  23.889
1658.65  37.821  23.889
1659.15  37.885  23.859
1659.65  37.821  23.889
1660.15  37.885  23.859
1660.65  37.821  23.889
1661.15  37.821  23.889
1661.65  37.821  23.859
1662.15  37.821  23.828
1662.65  37.885  23.920
1663.15  37.757  23.889
1663.65  37.821  23.889
1664.15  37.821  23.951
1664.65  37.821  23.889
1665.15  37.821  23.889
1665.65  37.885  23.889
1666.15  37.821  23.859
1666.65  37.757  23.889
1667.15  37.821  23.889
1667.65  37.821  23.951
1668.15  37.885  23.889
1668.65  37.757  23.859
1669.15  37.821  23.889
1669.65  37.821  23.889
1670.15  37.821  23.889
1670.65  37.885  23.889
1671.15  37.885  23.889
1671.65  37.821  23.889
1672.15  37.821  23.889
1672.65  37.821  23.889
1673.15  37.757  23.889
1673.65  37.821  23.889
1674.15  37.885  23.889
1674.65  37.885  23.889
1675.15  37.821  23.889
1675.65  37.885  23.889
1676.15  37.757  23.889
1676.65  37.949  23.889
1677.15  37.885  23.859
1677.65  37.885  23.920
1678.15  37.885  23.889
1678.65  37.821  23.889
1679.15  37.885  23.889
1679.65  37.821  23.920
1680.15  37.821  23.859
1680.65  37.821  23.889
1681.15  37.821  23.889
1681.65  37.885  23.889
1682.15  37.757  23.889
1682.65  37.885  23.889
1683.15  37.821  23.889
1683.65  37.885  23.889
1684.15  37.949  23.889
1684.65  37.821  23.889
1685.15  37.885  23.889
1685.65  37.885  23.889
1686.15  37.885  23.889
1686.65  37.821  23.828
1687.15  37.885  23.920
1687.65  37.821  23.889
1688.15  37.885  23.859
1688.65  37.885  23.889
1689.15  37.885  23.889
1689.65  37.885  23.889
1690.15  37.821  23.920
1690.65  37.949  23.889
1691.15  37.885  23.889
1691.65  37.885  23.889
1692.15  37.821  23.889
1692.65  37.949  23.889
1693.15  37.949  23.889
1693.65  37.949  23.889
1694.15  37.885  23.889
1694.65  38.013  23.889
1695.15  37.885  23.889
1695.65  37.949  23.920
1696.15  37.885  23.889
1696.65  37.949  23.859
1697.15  37.949  23.920
1697.65  37.821  23.828
1698.15  37.885  23.889
1698.65  37.757  23.889
1699.15  37.949  23.920
1699.65  37.885  23.859
1700.15  37.885  23.889
1700.65  37.885  23.920
1701.15  37.821  23.889
1701.65  37.885  23.859
1702.15  37.949  23.889
1702.65  37.885  23.889
1703.15  37.821  23.889
1703.65  37.949  23.889
1704.15  37.885  23.859
1704.65  37.629  23.920
1705.15  37.885  23.889
1705.65  37.821  23.889
1706.15  37.885  23.920
1706.65  37.949  23.889
1707.15  37.885  23.889
1707.65  37.885  23.889
1708.15  37.821  23.889
1708.65  37.949  23.920
1709.15  37.885  23.920
1709.65  37.949  23.889
1710.15  37.885  23.920
1710.65  37.949  23.889
1711.15  37.949  23.951
1711.65  37.885  23.889
1712.15  37.757  23.889
1712.65  37.949  23.889
1713.15  37.885  23.889
1713.65  37.885  23.889
1714.15  37.885  23.951
1714.65  37.821  23.889
1715.15  37.885  23.889
1715.65  37.949  23.889
1716.15  37.885  23.859
1716.65  37.949  23.889
1717.15  37.885  23.889
1717.65  37.949  23.889
1718.15  37.949  23.889
1718.65  37.885  23.889
1719.15  37.949  23.920
1719.65  37.885  23.920
1720.15  37.885  23.889
1720.65  37.949  23.920
1721.15  37.885  23.920
1721.65  37.949  23.889
1722.15  37.885  23.889
1722.65  37.949  23.859
1723.15  37.949  23.889
1723.65  37.949  23.889
1724.15  37.885  23.889
1724.65  37.949  23.889
1725.15  37.885  23.859
1725.65  37.949  23.889
1726.15  37.949  23.889
1726.65  37.949  23.951
1727.15  37.885  23.920
1727.65  37.949  23.920
1728.15  37.949  23.920
1728.65  37.949  23.889
1729.15  37.949  23.920
1729.65  37.949  23.889
1730.15  37.949  23.889
1730.65  37.949  23.920
1731.15  37.949  23.920
1731.65  37.949  23.920
1732.15  37.885  23.889
1732.65  37.949  23.920
1733.15  37.885  23.920
1733.65  37.949  23.889
1734.15  37.885  23.889
1734.65  37.949  23.889
1735.15  38.013  23.889
1735.65  37.885  23.920
1736.15  37.949  23.859
1736.65  38.013  23.920
1737.15  37.885  23.889
1737.65  37.949  23.920
1738.15  37.949  23.889
1738.65  37.885  23.889
1739.15  37.949  23.859
1739.65  38.013  23.920
1740.15  37.885  23.920
1740.65  37.949  23.920
1741.15  37.949  23.920
1741.65  37.949  23.920
1742.15  37.885  23.889
1742.65  37.949  23.920
1743.15  37.949  23.889
1743.65  37.949  23.889
1744.15  37.949  23.920
1744.65  37.949  23.920
1745.15  38.013  23.920
1745.65  37.949  23.920
1746.15  37.885  23.889
1746.65  38.077  23.889
1747.15  37.949  23.889
1747.65  37.949  23.859
1748.15  37.949  23.859
1748.65  37.949  23.920
1749.15  38.013  23.920
1749.65  37.949  23.889
1750.15  37.949  23.920
1750.65  37.949  23.920
1751.15  37.885  23.889
1751.65  37.885  23.920
1752.15  37.949  23.889
1752.65  38.013  23.889
1753.15  37.949  23.889
1753.65  37.885  23.920
1754.15  37.885  23.920
1754.65  37.949  23.920
1755.15  37.949  23.951
1755.66  37.949  23.889
1756.16  37.885  23.889
1756.66  37.949  23.889
1757.16  37.949  23.889
1757.66  38.013  23.889
1758.16  37.885  23.920
1758.66  38.205  23.889
1759.16  38.013  23.889
1759.66  37.949  23.951
1760.16  37.949  23.920
1760.66  37.949  23.889
1761.16  37.949  23.889
1761.66  37.949  23.889
1762.16  38.013  23.920
1762.66  37.949  23.920
1763.16  37.949  23.889
1763.66  37.949  23.920
1764.16  37.949  23.920
1764.66  38.013  23.920
1765.16  37.949  23.920
1765.66  38.141  23.920
1766.16  37.949  23.889
1766.66  37.949  23.889
1767.16  38.013  23.920
1767.66  38.013  23.920
1768.16  37.949  23.889
1768.66  37.949  23.920
1769.16  38.013  23.920
1769.66  38.077  23.920
1770.16  37.949  23.920
1770.66  37.949  23.889
1771.16  37.949  23.920
1771.66  37.949  23.920
1772.16  38.013  23.920
1772.66  38.077  23.920
1773.16  38.013  23.982
1773.66  38.013  23.889
1774.16  37.949  23.920
1774.66  37.949  23.920
1775.16  38.077  23.920
1775.66  37.949  23.859
1776.16  38.013  23.889
1776.66  37.949  23.920
1777.16  38.077  23.920
1777.66  38.077  23.889
1778.16  38.013  23.920
1778.66  37.949  23.951
1779.16  37.949  23.859
1779.66  38.013  23.889
1780.16  38.013  23.920
1780.66  38.077  23.920
1781.16  37.949  23.859
1781.66  37.949  23.920
1782.16  38.013  23.951
1782.66  38.077  23.889
1783.16  37.949  23.920
1783.66  37.949  23.889
1784.16  37.949  23.920
1784.66  38.013  23.951
1785.16  38.013  23.889
1785.66  38.013  23.920
1786.16  38.013  23.920
1786.66  38.013  23.920
1787.16  38.013  23.920
1787.66  38.013  23.920
1788.16  38.013  23.920
1788.66  37.949  23.920
1789.16  37.949  23.982
1789.66  37.949  23.920
1790.16  38.013  23.920
1790.66  37.949  23.920
1791.16  38.013  23.951
1791.66  38.077  23.889
1792.16  38.013  23.920
1792.66  37.885  23.920
1793.16  38.013  23.951
1793.66  37.949  23.920
1794.16  38.013  23.920
1794.66  38.013  23.920
1795.16  38.013  23.889
1795.66  38.013  23.889
1796.16  38.013  23.920
1796.66  38.013  23.889
1797.16  37.949  23.920
1797.66  37.885  23.951
1798.16  38.013  23.951
1798.66  38.013  23.920
1799.16  37.949  23.889
1799.66  37.885  23.889
1800.16  38.013  23.951
1800.66  38.013  23.920
1801.16  37.949  23.920
1801.66  38.013  23.889
1802.16  38.077  23.920
1802.66  38.013  23.920
1803.16  37.885  23.920
1803.66  37.949  23.920
1804.16  38.013  23.951
1804.66  38.013  23.889
1805.16  38.077  23.920
1805.66  38.077  23.889
1806.16  38.077  23.951
1806.66  38.013  23.920
1807.16  37.949  23.920
1807.66  38.013  23.920
1808.16  38.013  23.889
1808.66  38.013  23.920
1809.16  38.013  23.982
1809.66  38.077  23.951
1810.16  38.013  23.951
1810.66  38.013  23.920
1811.16  38.013  23.982
1811.66  38.077  23.920
1812.16  38.077  23.889
1812.66  38.013  23.889
1813.16  38.077  23.951
1813.66  38.013  23.920
1814.16  38.077  23.920
1814.66  38.013  23.920
1815.16  38.013  23.920
1815.66  38.013  23.920
1816.16  38.077  23.920
1816.66  38.013  23.920
1817.16  38.077  23.951
1817.66  38.077  23.951
1818.16  38.077  23.920
1818.66  38.013  23.951
1819.16  38.013  23.920
1819.66  37.949  23.951
1820.16  38.077  23.920
1820.66  38.013  23.920
1821.16  38.141  23.920
1821.66  38.013  23.920
1822.16  38.013  23.889
1822.66  38.013  23.920
1823.16  38.077  23.920
1823.66  38.013  23.920
1824.16  38.077  23.951
1824.66  38.013  23.920
1825.16  38.013  23.889
1825.66  38.077  23.920
1826.16  38.013  23.920
1826.66  38.013  23.889
1827.16  38.013  23.920
1827.66  38.013  23.920
1828.16  38.013  23.920
1828.66  38.013  23.951
1829.16  38.077  23.889
1829.66  38.013  23.920
1830.16  38.077  23.920
1830.66  38.077  23.920
1831.16  38.013  23.951
1831.66  38.013  23.920
1832.16  38.077  23.920
1832.66  38.013  23.859
1833.16  38.013  23.920
1833.66  37.949  23.920
1834.16  38.077  23.920
1834.66  38.077  23.920
1835.16  38.077  23.920
1835.66  38.077  23.951
1836.16  38.077  23.920
1836.66  38.013  23.920
1837.16  38.013  23.951
1837.66  38.141  23.920
1838.16  38.013  23.920
1838.66  38.013  23.920
1839.16  38.077  23.920
1839.66  38.013  23.920
1840.16  38.013  23.920
1840.66  38.077  23.889
1841.16  37.949  24.013
1841.66  38.077  23.920
1842.16  38.077  23.951
1842.66  38.077  23.920
1843.16  38.013  23.920
1843.66  38.141  23.951
1844.16  38.077  23.951
1844.66  38.077  23.951
1845.16  38.077  23.920
1845.66  38.077  23.920
1846.16  38.205  23.920
1846.66  38.077  23.889
1847.16  38.077  23.951
1847.66  38.077  23.951
1848.16  38.077  23.920
1848.66  38.013  23.920
1849.16  38.077  23.951
1849.66  38.141  23.889
1850.16  38.077  23.951
1850.66  38.077  23.951
1851.16  38.013  23.951
1851.66  38.077  23.920
1852.16  38.013  23.951
1852.66  38.013  23.920
1853.16  38.077  23.920
1853.66  38.077  23.951
1854.16  38.077  23.951
1854.66  38.077  23.920
1855.16  38.077  23.951
1855.66  38.077  23.951
1856.16  38.141  23.920
1856.66  38.077  23.920
1857.16  38.077  23.889
1857.66  38.141  23.951
1858.16  38.077  23.951
1858.66  38.013  23.920
1859.16  38.077  23.982
1859.66  38.141  23.951
1860.16  38.077  23.951
1860.66  38.077  23.920
1861.16  37.949  23.951
1861.66  38.013  23.889
1862.16  38.013  23.920
1862.66  38.141  23.920
1863.16  37.949  23.920
1863.66  38.077  23.889
1864.16  38.077  23.982
1864.66  38.077  23.920
1865.16  38.077  23.951
1865.66  38.077  23.920
1866.16  38.141  23.920
1866.66  38.077  23.920
1867.16  38.141  23.889
1867.66  38.077  23.982
1868.16  38.141  23.951
1868.66  38.077  23.982
1869.17  38.077  23.982
1869.67  37.949  23.951
1870.17  38.141  23.951
1870.67  38.077  23.920
1871.17  38.077  23.920
1871.67  38.077  23.951
1872.17  38.141  23.920
1872.67  38.013  23.920
1873.17  38.077  23.920
1873.67  38.141  23.951
1874.17  38.077  23.889
1874.67  38.141  23.920
1875.17  38.205  23.951
1875.67  38.077  23.920
1876.17  38.077  23.982
1876.67  38.141  23.920
1877.17  38.205  23.982
1877.67  38.141  23.951
1878.17  38.141  23.951
1878.67  38.077  23.951
1879.17  38.141  23.920
1879.67  38.141  23.982
1880.17  38.205  23.920
1880.67  38.141  23.951
1881.17  38.013  23.920
1881.67  38.077  23.951
1882.17  38.077  23.920
1882.67  38.077  23.951
1883.17  38.077  23.920
1883.67  38.077  23.920
1884.17  38.141  23.920
1884.67  38.077  23.951
1885.17  38.077  23.920
1885.67  38.141  23.951
1886.17  38.141  23.951
1886.67  38.013  23.920
1887.17  38.141  23.920
1887.67  38.077  23.920
1888.17  38.077  23.982
1888.67  38.077  23.889
1889.17  38.077  23.920
1889.67  38.077  23.951
1890.17  38.141  23.920
1890.67  38.141  23.951
1891.17  38.077  23.951
1891.67  38.077  23.889
1892.17  38.077  23.951
1892.67  38.141  23.920
1893.17  38.141  23.920
1893.67  38.077  23.920
1894.17  38.141  23.920
1894.67  38.077  23.920
1895.17  38.141  23.920
1895.67  38.141  23.951
1896.17  38.077  23.951
1896.67  38.141  23.951
1897.17  38.141  23.951
1897.67  38.141  23.982
1898.17  38.141  23.920
1898.67  38.141  23.951
1899.17  38.141  23.951
1899.67  38.141  23.951
1900.17  38.077  23.920
1900.67  38.205  23.951
1901.17  38.141  23.982
1901.67  38.141  23.982
1902.17  38.141  23.951
1902.67  38.141  23.951
1903.17  38.077  23.982
1903.67  38.141  23.951
1904.17  38.141  23.982
1904.67  38.077  23.951
1905.17  38.141  23.951
1905.67  38.141  23.920
1906.17  38.205  23.951
1906.67  38.141  23.951
1907.17  38.205  23.920
1907.67  38.141  23.951
1908.17  38.141  23.951
1908.67  38.077  23.982
1909.17  38.141  23.951
1909.67  38.141  23.982
1910.17  38.205  23.951
1910.67  38.141  23.982
1911.17  38.205  23.951
1911.67  38.141  23.982
1912.17  38.077  23.951
1912.67  38.141  23.982
1913.17  38.141  23.951
1913.67  38.141  23.982
1914.17  38.141  23.951
1914.67  38.205  23.951
1915.17  38.141  23.951
1915.67  38.077  23.951
1916.17  38.141  23.951
1916.67  38.141  23.951
1917.17  38.205  23.982
1917.67  38.205  23.982
1918.17  38.141  23.920
1918.67  38.141  23.951
1919.17  38.141  23.982
1919.67  38.205  23.951
1920.17  38.141  23.982
1920.67  38.141  23.982
1921.17  38.205  23.982
1921.67  38.205  23.920
1922.17  38.141  23.951
1922.67  38.205  23.951
1923.17  38.141  23.951
1923.67  38.205  23.982
1924.17  38.141  23.951
1924.67  38.077  23.982
1925.17  38.141  23.982
1925.67  38.205  23.982
1926.17  38.205  23.951
1926.67  38.141  23.951
1927.17  38.205  23.920
1927.67  38.205  23.982
1928.17  38.205  23.951
1928.67  38.205  23.951
1929.17  38.205  24.074
1929.67  38.141  23.951
1930.17  38.205  23.982
1930.67  38.205  23.951
1931.17  38.205  23.951
1931.67  38.205  23.982
1932.17  38.141  23.982
1932.67  38.269  23.982
1933.17  38.205  23.951
1933.67  38.205  23.951
1934.17  38.205  23.951
1934.67  38.205  23.920
1935.17  38.141  23.951
1935.67  38.141  23.951
1936.17  38.269  23.951
1936.67  38.269  23.951
1937.17  38.205  23.982
1937.67  38.205  24.013
1938.17  38.141  23.951
1938.67  38.205  23.951
1939.17  38.077  23.982
1939.67  38.141  23.982
1940.17  38.269  23.982
1940.67  38.077  23.951
1941.17  38.205  23.920
1941.67  38.205  23.982
1942.17  38.205  23.951
1942.67  38.269  23.951
1943.17  38.141  23.951
1943.67  38.269  23.951
1944.17  38.205  23.951
1944.67  38.141  24.013
1945.17  38.205  23.951
1945.67  38.141  23.951
1946.17  38.141  23.982
1946.67  38.269  23.982
1947.17  38.141  23.982
1947.67  38.205  23.920
1948.17  38.205  23.982
1948.67  38.205  23.982
1949.17  38.205  23.951
1949.67  38.205  23.982
1950.17  38.077  23.982
1950.67  38.205  23.982
1951.17  38.205  23.982
1951.67  38.205  23.982
1952.17  38.205  23.951
1952.67  38.141  23.951
1953.17  38.205  23.951
1953.67  38.141  23.951
1954.17  38.141  23.982
1954.67  38.205  23.951
1955.17  38.141  23.982
1955.67  38.205  24.013
1956.17  38.141  23.982
1956.67  38.205  23.920
1957.17  38.269  23.951
1957.67  38.205  23.982
1958.17  38.141  23.951
1958.67  38.141  23.982
1959.17  38.141  23.951
1959.67  38.205  23.982
1960.17  38.205  23.982
1960.67  38.205  23.982
1961.17  38.205  23.951
1961.67  38.269  23.982
1962.17  38.205  23.920
1962.67  38.205  23.951
1963.17  38.205  23.951
1963.67  38.141  23.982
1964.17  38.141  23.951
1964.67  38.205  23.951
1965.17  38.205  23.951
1965.67  38.269  24.013
1966.17  38.205  23.982
1966.67  38.205  23.982
1967.17  38.205  23.982
1967.67  38.269  23.951
1968.17  38.205  23.982
1968.67  38.141  23.982
1969.17  38.205  23.951
1969.67  38.205  23.982
1970.17  38.205  23.982
1970.67  38.205  23.982
1971.17  38.141  23.982
1971.67  38.269  23.982
1972.17  38.269  24.013
1972.67  38.205  23.951
1973.17  38.141  24.013
1973.67  38.205  23.982
1974.17  38.141  23.982
1974.67  38.205  23.982
1975.17  38.141  24.043
1975.67  38.205  24.013
1976.17  38.269  24.013
1976.67  38.205  24.013
1977.17  38.269  24.013
1977.67  38.205  23.982
1978.17  38.269  23.920
1978.67  38.205  23.951
1979.17  38.269  23.982
1979.67  38.269  24.013
1980.17  38.141  23.982
1980.67  38.269  23.920
1981.17  38.141  23.982
1981.67  38.205  23.982
1982.18  38.269  23.982
1982.68  38.269  24.013
1983.18  38.269  23.951
1983.68  38.269  23.982
1984.18  38.205  23.982
1984.68  38.205  24.013
1985.18  38.205  23.951
1985.68  38.205  23.982
1986.18  38.269  24.013
1986.68  38.269  23.982
1987.18  38.205  24.013
1987.68  38.205  24.013
1988.18  38.333  23.951
1988.68  38.269  23.951
1989.18  38.205  23.982
1989.68  38.205  24.013
1990.18  38.205  23.982
1990.68  38.269  24.013
1991.18  38.269  23.982
1991.68  38.205  24.013
1992.18  38.205  24.043
1992.68  38.205  23.982
1993.18  38.205  24.013
1993.68  38.269  23.982
1994.18  38.269  23.982
1994.68  38.269  23.982
1995.18  38.205  23.982
1995.68  38.205  24.013
1996.18  38.269  23.982
1996.68  38.205  24.013
1997.18  38.205  24.013
1997.68  38.269  23.982
1998.18  38.205  23.951
1998.68  38.269  23.982
1999.18  38.205  23.982
1999.68  38.269  23.982
2000.18  38.269  23.951
2000.68  38.269  24.013
2001.18  38.269  23.982
2001.68  38.205  23.951
2002.18  38.269  23.982
2002.68  38.269  23.951
2003.18  38.205  23.982
2003.68  38.269  23.951
2004.18  38.269  23.982
2004.68  38.205  23.982
2005.18  38.205  23.982
2005.68  38.205  23.920
2006.18  38.205  23.920
2006.68  38.141  23.982
2007.18  38.269  24.013
2007.68  38.205  23.982
2008.18  38.205  23.920
2008.68  38.269  23.982
2009.18  38.269  23.951
2009.68  38.205  23.982
2010.18  38.269  23.982
2010.68  38.269  23.982
2011.18  38.269  24.043
2011.68  38.269  24.013
2012.18  38.333  24.013
2012.68  38.205  23.982
2013.18  38.269  23.951
2013.68  38.269  24.013
2014.18  38.269  23.982
2014.68  38.269  23.982
2015.18  38.333  23.982
2015.68  38.269  24.013
2016.18  38.269  23.982
2016.68  38.333  23.982
2017.18  38.269  23.951
2017.68  38.269  24.043
2018.18  38.269  23.982
2018.68  38.205  24.013
2019.18  38.333  23.982
2019.68  38.269  24.013
2020.18  38.269  23.982
2020.68  38.269  24.043
2021.18  38.269  23.982
2021.68  38.269  24.013
2022.18  38.269  23.982
2022.68  38.333  23.982
2023.18  38.205  23.982
2023.68  38.269  24.013
2024.18  38.269  23.982
2024.68  38.205  23.982
2025.18  38.141  23.951
2025.68  38.205  23.982
2026.18  38.269  23.982
2026.68  38.333  23.982
2027.18  38.333  24.013
2027.68  38.333  23.951
2028.18  38.269  23.982
2028.68  38.205  23.982
2029.18  38.333  24.013
2029.68  38.269  23.982
2030.18  38.269  23.982
2030.68  38.269  23.982
2031.18  38.205  24.013
2031.68  38.269  23.920
2032.18  38.269  23.982
2032.68  38.269  23.982
2033.18  38.269  23.951
2033.68  38.269  23.982
2034.18  38.269  23.982
2034.68  38.269  24.013
2035.18  38.397  23.982
2035.68  38.269  23.982
2036.18  38.269  24.013
2036.68  38.269  23.951
2037.18  38.269  24.013
2037.68  38.269  23.982
2038.18  38.269  24.013
2038.68  38.205  23.982
2039.18  38.205  23.951
2039.68  38.269  24.013
2040.18  38.333  24.013
2040.68  38.205  23.982
2041.18  38.269  24.013
2041.68  38.269  23.982
2042.18  38.333  23.951
2042.68  38.269  23.982
2043.18  38.333  23.982
2043.68  38.269  23.982
2044.18  38.333  23.982
2044.68  38.333  23.951
2045.18  38.333  24.013
2045.68  38.333  23.982
2046.18  38.333  24.013
2046.68  38.269  23.951
2047.18  38.205  23.951
2047.68  38.269  24.013
2048.18  38.205  23.951
2048.68  38.269  23.982
2049.18  38.269  24.013
2049.68  38.333  23.982
2050.18  38.269  23.951
2050.68  38.269  24.043
2051.18  38.269  23.951
2051.68  38.269  23.982
2052.18  38.269  23.951
2052.68  38.269  24.043
2053.18  38.269  23.951
2053.68  38.269  23.982
2054.18  38.397  24.013
2054.68  38.269  23.982
2055.18  38.269  24.043
2055.68  38.269  24.013
2056.18  38.269  23.982
2056.68  38.269  23.951
2057.18  38.141  23.982
2057.68  38.269  23.951
2058.18  38.269  24.013
2058.68  38.269  24.013
2059.18  38.397  24.013
2059.68  38.269  23.982
2060.18  38.269  24.013
2060.68  38.333  23.951
2061.18  38.269  24.013
2061.68  38.269  24.013
2062.18  38.269  24.013
2062.68  38.333  24.043
2063.18  38.333  23.982
2063.68  38.333  23.982
2064.18  38.269  23.982
2064.68  38.269  24.013
2065.18  38.205  23.951
2065.68  38.269  23.951
2066.18  38.333  24.043
2066.68  38.269  24.043
2067.18  38.269  24.013
2067.68  38.333  24.013
2068.18  38.333  23.982
2068.68  38.205  24.043
2069.18  38.269  24.013
2069.68  38.333  24.013
2070.18  38.397  23.982
2070.68  38.269  23.982
2071.18  38.333  24.013
2071.68  38.333  24.013
2072.18  38.269  24.043
2072.68  38.269  24.013
2073.18  38.269  24.013
2073.68  38.333  24.013
2074.18  38.333  24.043
2074.68  38.269  24.013
2075.18  38.269  23.951
2075.68  38.269  24.013
2076.18  38.269  23.982
2076.68  38.333  24.013
2077.18  38.205  24.013
2077.68  38.269  24.013
2078.18  38.333  23.982
2078.68  38.269  23.982
2079.18  38.333  24.013
2079.68  38.333  24.013
2080.18  38.333  24.013
2080.68  38.333  24.013
2081.18  38.333  23.982
2081.68  38.333  24.013
2082.18  38.333  23.982
2082.68  38.333  24.013
2083.18  38.333  24.043
2083.68  38.333  24.013
2084.18  38.333  23.982
2084.68  38.269  24.013
2085.18  38.333  24.013
2085.68  38.461  24.013
2086.18  38.269  24.013
2086.68  38.397  24.013
2087.18  38.269  24.013
2087.68  38.333  24.013
2088.18  38.397  24.013
2088.68  38.333  24.013
2089.18  38.397  24.013
2089.68  38.333  23.982
2090.18  38.461  24.043
2090.68  38.269  24.013
2091.18  38.333  24.013
2091.68  38.333  24.013
2092.18  38.269  24.013
2092.68  38.333  23.951
2093.18  38.333  24.013
2093.68  38.333  23.982
2094.18  38.333  24.013
2094.68  38.333  23.982
2095.19  38.333  24.043
2095.69  38.333  24.013
2096.19  38.333  23.982
2096.69  38.461  24.043
2097.19  38.333  24.013
2097.69  38.397  24.013
2098.19  38.269  24.043
2098.69  38.397  24.013
2099.19  38.461  24.043
2099.69  38.333  24.013
2100.19  38.333  24.013
2100.69  38.333  24.013
2101.19  38.397  24.013
2101.69  38.333  24.013
2102.19  38.397  23.982
2102.69  38.333  24.013
2103.19  38.461  24.013
2103.69  38.269  24.013
2104.19  38.333  24.013
2104.69  38.333  24.013
2105.19  38.333  24.013
2105.69  38.333  23.982
2106.19  38.333  24.013
2106.69  38.269  24.013
2107.19  38.397  24.013
2107.69  38.333  24.043
2108.19  38.269  24.013
2108.69  38.269  24.074
2109.19  38.269  24.013
2109.69  38.333  24.013
2110.19  38.333  24.013
2110.69  38.461  24.013
2111.19  38.333  24.013
2111.69  38.333  24.013
2112.19  38.397  24.013
2112.69  38.333  23.982
2113.19  38.333  23.982
2113.69  38.333  24.013
2114.19  38.333  23.982
2114.69  38.333  24.013
2115.19  38.333  24.043
2115.69  38.333  24.013
2116.19  38.397  23.982
2116.69  38.333  24.013
2117.19  38.397  24.043
2117.69  38.333  24.013
2118.19  38.333  24.013
2118.69  38.397  24.013
2119.19  38.333  24.013
2119.69  38.333  24.043
2120.19  38.333  24.043
2120.69  38.333  24.013
2121.19  38.333  24.043
2121.69  38.525  24.043
2122.19  38.333  24.043
2122.69  38.397  24.043
2123.19  38.397  24.013
2123.69  38.397  23.951
2124.19  38.397  24.013
2124.69  38.397  24.013
2125.19  38.461  24.013
2125.69  38.333  24.043
2126.19  38.397  24.043
2126.69  38.333  24.043
2127.19  38.333  24.013
2127.69  38.461  24.013
2128.19  38.333  24.013
2128.69  38.333  24.013
2129.19  38.333  23.982
2129.69  38.397  24.043
2130.19  38.397  24.043
2130.69  38.333  24.043
2131.19  38.333  24.043
2131.69  38.397  24.013
2132.19  38.333  24.013
2132.69  38.333  24.074
2133.19  38.333  24.013
2133.69  38.333  24.013
2134.19  38.333  24.013
2134.69  38.333  23.982
2135.19  38.333  24.013
2135.69  38.333  23.982
2136.19  38.333  23.982
2136.69  38.333  24.043
2137.19  38.333  23.982
2137.69  38.397  24.013
2138.19  38.333  24.013
2138.69  38.333  24.013
2139.19  38.397  23.982
2139.69  38.461  24.013
2140.19  38.461  24.013
2140.69  38.333  24.043
2141.19  38.397  24.043
2141.69  38.397  24.013
2142.19  38.397  23.982
2142.69  38.397  24.013
2143.19  38.333  24.043
2143.69  38.397  24.013
2144.19  38.333  24.013
2144.69  38.269  24.043
2145.19  38.397  24.043
2145.69  38.397  24.043
2146.19  38.333  24.013
2146.69  38.397  24.043
2147.19  38.397  24.013
2147.69  38.269  24.013
2148.19  38.333  24.043
2148.69  38.397  24.043
2149.19  38.397  24.074
2149.69  38.333  24.013
2150.19  38.397  24.013
2150.69  38.397  24.043
2151.19  38.397  24.043
2151.69  38.333  23.982
2152.19  38.397  24.043
2152.69  38.269  24.043
2153.19  38.333  24.043
2153.69  38.397  24.043
2154.19  38.397  24.074
2154.69  38.397  24.043
2155.19  38.397  24.013
2155.69  38.397  24.013
2156.19  38.333  24.043
2156.69  38.397  24.013
2157.19  38.333  24.043
2157.69  38.333  24.043
2158.19  38.461  24.013
2158.69  38.397  24.043
2159.19  38.397  24.013
2159.69  38.397  24.013
2160.19  38.397  24.043
2160.69  38.461  24.043
2161.19  38.333  24.013
2161.69  38.397  24.043
2162.19  38.525  24.043
2162.69  38.397  24.013
2163.19  38.333  24.043
2163.69  38.461  24.043
2164.19  38.397  24.043
2164.69  38.397  24.043
2165.19  38.269  24.013
2165.69  38.397  24.043
2166.19  38.525  23.982
2166.69  38.461  24.013
2167.19  38.397  24.043
2167.69  38.461  24.074
2168.19  38.461  23.982
2168.69  38.333  24.043
2169.19  38.461  24.013
2169.69  38.397  24.013
2170.19  38.397  24.043
2170.69  38.461  24.043
2171.19  38.461  24.043
2171.69  38.397  23.982
2172.19  38.397  24.043
2172.69  38.397  24.013
2173.19  38.397  24.013
2173.69  38.461  24.013
2174.19  38.397  24.043
2174.69  38.397  24.043
2175.19  38.333  24.043
2175.69  38.333  24.013
2176.19  38.397  24.043
2176.69  38.461  24.043
2177.19  38.397  24.013
2177.69  38.397  24.013
2178.19  38.333  24.043
2178.69  38.461  24.043
2179.19  38.397  24.043
2179.69  38.397  24.043
2180.19  38.589  24.013
2180.69  38.333  24.043
2181.19  38.397  24.043
2181.69  38.461  24.013
2182.19  38.397  24.043
2182.69  38.397  24.013
2183.19  38.397  24.043
2183.69  38.333  24.013
2184.19  38.397  24.043
2184.69  38.461  24.074
2185.19  38.461  24.043
2185.69  38.397  24.013
2186.19  38.461  24.043
2186.69  38.397  24.013
2187.19  38.397  24.013
2187.69  38.461  24.013
2188.19  38.461  24.043
2188.69  38.397  24.043
2189.19  38.397  24.043
2189.69  38.397  24.074
2190.19  38.397  24.043
2190.69  38.461  23.982
2191.19  38.461  24.043
2191.69  38.397  24.043
2192.19  38.461  24.043
2192.69  38.461  24.043
2193.19  38.397  24.013
2193.69  38.397  24.043
2194.19  38.397  24.013
2194.69  38.333  24.043
2195.19  38.461  24.043
2195.69  38.461  24.105
2196.19  38.397  24.074
2196.69  38.461  24.074
2197.19  38.397  24.043
2197.70  38.461  24.043
2198.20  38.397  24.043
2198.70  38.461  24.013
2199.20  38.397  24.043
2199.70  38.461  24.043
2200.20  38.461  24.043
2200.70  38.525  24.013
2201.20  38.397  23.982
2201.70  38.461  24.043
2202.20  38.333  24.013
2202.70  38.525  24.043
2203.20  38.461  24.043
2203.70  38.397  24.043
2204.20  38.461  24.043
2204.70  38.397  24.074
2205.20  38.397  24.043
2205.70  38.461  24.013
2206.20  38.461  24.043
2206.70  38.461  24.043
2207.20  38.397  24.043
2207.70  38.333  24.043
2208.20  38.461  24.074
2208.70  38.397  24.043
2209.20  38.525  24.043
2209.70  38.397  24.043
2210.20  38.461  24.013
2210.70  38.525  24.043
2211.20  38.397  24.043
2211.70  38.397  24.013
2212.20  38.461  24.043
2212.70  38.461  24.074
2213.20  38.397  24.043
2213.70  38.397  24.043
2214.20  38.397  24.043
2214.70  38.461  24.013
2215.20  38.461  24.043
2215.70  38.397  24.013
2216.20  38.461  24.043
2216.70  38.461  24.013
2217.20  38.461  24.043
2217.70  38.461  23.982
2218.20  38.461  24.074
2218.70  38.461  24.043
2219.20  38.461  24.074
2219.70  38.461  24.043
2220.20  38.461  24.043
2220.70  38.461  24.043
2221.20  38.461  24.043
2221.70  38.461  24.043
2222.20  38.461  24.074
2222.70  38.461  24.043
2223.20  38.461  24.043
2223.70  38.589  24.043
2224.20  38.461  24.043
2224.70  38.461  24.043
2225.20  38.525  24.043
2225.70  38.461  24.074
2226.20  38.461  24.043
2226.70  38.461  24.043
2227.20  38.461  24.013
2227.70  38.397  24.043
2228.20  38.461  24.043
2228.70  38.461  24.043
2229.20  38.397  24.043
2229.70  38.461  24.105
2230.20  38.589  24.043
2230.70  38.397  24.043
2231.20  38.461  24.043
2231.70  38.397  24.074
2232.20  38.461  24.043
2232.70  38.461  24.043
2233.20  38.525  24.013
2233.70  38.461  24.074
2234.20  38.461  24.043
2234.70  38.461  24.013
2235.20  38.461  24.043
2235.70  38.461  24.043
2236.20  38.461  24.074
2236.70  38.461  24.043
2237.20  38.461  24.013
2237.70  38.461  24.043
2238.20  38.525  24.105
2238.70  38.461  24.043
2239.20  38.461  24.013
2239.70  38.461  24.043
2240.20  38.461  24.013
2240.70  38.525  24.043
2241.20  38.397  24.043
2241.70  38.461  24.043
2242.20  38.525  24.074
2242.70  38.461  24.043
2243.20  38.461  24.043
2243.70  38.461  24.043
2244.20  38.397  24.105
2244.70  38.461  24.043
2245.20  38.397  24.074
2245.70  38.461  24.013
2246.20  38.525  24.074
2246.70  38.525  24.043
2247.20  38.461  24.105
2247.70  38.461  24.074
2248.20  38.461  24.074
2248.70  38.461  24.013
2249.20  38.461  23.982
2249.70  38.397  24.013
2250.20  38.461  24.074
2250.70  38.525  24.043
2251.20  38.461  24.043
2251.70  38.461  24.043
2252.20  38.525  24.074
2252.70  38.525  24.074
2253.20  38.525  24.074
2253.70  38.525  24.043
2254.20  38.525  24.043
2254.70  38.397  24.105
2255.20  38.461  24.105
2255.70  38.397  24.043
2256.20  38.461  24.074
2256.70  38.525  24.105
2257.20  38.461  24.043
2257.70  38.397  24.043
2258.20  38.461  24.043
2258.70  38.461  24.074
2259.20  38.397  24.043
2259.70  38.461  24.043
2260.20  38.461  24.043
2260.70  38.461  24.043
2261.20  38.461  24.043
2261.70  38.461  24.043
2262.20  38.525  24.043
2262.70  38.461  24.043
2263.20  38.461  24.105
2263.70  38.397  24.013
2264.20  38.397  24.043
2264.70  38.461  24.013
2265.20  38.525  24.105
2265.70  38.397  24.043
2266.20  38.461  24.043
2266.70  38.461  24.043
2267.20  38.525  24.043
2267.70  38.461  24.074
2268.20  38.589  24.105
2268.70  38.525  24.013
2269.20  38.525  24.013
2269.70  38.461  24.043
2270.20  38.461  24.074
2270.70  38.461  24.043
2271.20  38.461  24.013
2271.70  38.589  24.074
2272.20  38.461  24.043
2272.70  38.461  24.043
2273.20  38.525  24.074
2273.70  38.525  24.043
2274.20  38.525  24.074
2274.70  38.461  24.043
2275.20  38.397  24.074
2275.70  38.461  24.105
2276.20  38.461  24.074
2276.70  38.525  24.074
2277.20  38.589  24.074
2277.70  38.461  24.074
2278.20  38.461  24.043
2278.70  38.461  24.043
2279.20  38.525  24.074
2279.70  38.525  24.043
2280.20  38.525  24.074
2280.70  38.589  24.043
2281.20  38.461  24.074
2281.70  38.461  24.043
2282.20  38.397  24.043
2282.70  38.461  24.043
2283.20  38.461  24.043
2283.70  38.525  24.074
2284.20  38.397  24.074
2284.70  38.461  24.105
2285.20  38.525  24.074
2285.70  38.525  24.074
2286.20  38.525  24.074
2286.70  38.525  24.074
2287.20  38.461  24.105
2287.70  38.525  24.074
2288.20  38.525  24.043
2288.70  38.525  24.074
2289.20  38.525  24.074
2289.70  38.525  24.074
2290.20  38.525  24.074
2290.70  38.589  24.074
2291.20  38.589  24.074
2291.70  38.461  24.074
2292.20  38.589  24.074
2292.70  38.525  24.043
2293.20  38.461  24.043
2293.70  38.525  24.074
2294.20  38.525  24.074
2294.70  38.525  24.074
2295.20  38.589  24.074
2295.70  38.461  24.043
2296.20  38.461  24.074
2296.70  38.525  24.105
2297.20  38.525  24.074
2297.70  38.461  24.043
2298.20  38.589  24.074
2298.70  38.525  24.136
2299.20  38.589  24.043
2299.70  38.589  24.043
2300.20  38.589  24.074
2300.70  38.525  24.074
2301.20  38.525  24.074
2301.70  38.461  24.074
2302.20  38.525  24.043
2302.70  38.461  24.074
2303.20  38.525  24.043
2303.70  38.525  24.105
2304.20  38.589  24.105
2304.70  38.589  24.043
2305.20  38.589  24.013
2305.70  38.525  24.105
2306.20  38.525  24.105
2306.70  38.525  24.074
2307.20  38.461  24.074
2307.70  38.461  24.074
2308.20  38.461  24.074
2308.70  38.461  24.013
2309.20  38.525  24.074
2309.70  38.525  24.043
2310.20  38.589  24.074
2310.70  38.525  24.043
2311.20  38.525  24.074
2311.70  38.461  24.074
2312.20  38.525  24.074
2312.70  38.525  24.074
2313.20  38.461  24.105
2313.70  38.525  24.074
2314.20  38.525  24.043
2314.70  38.589  24.074
2315.20  38.525  24.105
2315.70  38.397  24.043
2316.20  38.525  24.105
2316.70  38.525  24.074
2317.20  38.461  24.074
2317.70  38.525  24.074
2318.20  38.525  24.013
2318.70  38.589  24.074
2319.20  38.461  24.043
2319.70  38.589  24.074
2320.20  38.461  24.013
2320.70  38.397  24.074
2321.20  38.525  24.043
2321.71  38.525  24.043
2322.21  38.589  24.105
2322.71  38.525  24.043
2323.21  38.525  24.074
2323.71  38.525  24.074
2324.21  38.525  24.074
2324.71  38.589  24.074
2325.21  38.525  24.074
2325.71  38.525  24.074
2326.21  38.589  24.074
2326.71  38.525  24.043
2327.21  38.525  24.043
2327.71  38.461  24.074
2328.21  38.525  24.074
2328.71  38.525  24.074
2329.21  38.525  24.105
2329.71  38.525  24.074
2330.21  38.525  24.105
2330.71  38.525  24.074
2331.21  38.525  24.105
2331.71  38.525  24.074
2332.21  38.461  24.074
2332.71  38.525  24.043
2333.21  38.525  24.105
2333.71  38.525  24.074
2334.21  38.525  24.105
2334.71  38.525  24.074
2335.21  38.589  24.074
2335.71  38.525  24.074
2336.21  38.525  24.074
2336.71  38.461  24.074
2337.21  38.525  24.105
2337.71  38.525  24.043
2338.21  38.525  24.074
2338.71  38.525  24.043
2339.21  38.525  24.105
2339.71  38.589  24.043
2340.21  38.525  24.043
2340.71  38.525  24.074
2341.21  38.589  24.074
2341.71  38.525  24.074
2342.21  38.525  24.074
2342.71  38.525  24.074
2343.21  38.525  24.074
2343.71  38.589  24.074
2344.21  38.461  24.074
2344.71  38.525  24.074
2345.21  38.461  24.105
2345.71  38.589  24.074
2346.21  38.589  24.105
2346.71  38.525  24.074
2347.21  38.525  24.105
2347.71  38.653  24.074
2348.21  38.589  24.105
2348.71  38.525  24.074
2349.21  38.525  24.105
2349.71  38.589  24.074
2350.21  38.589  24.074
2350.71  38.525  24.105
2351.21  38.461  24.074
2351.71  38.589  24.105
2352.21  38.525  24.074
2352.71  38.589  24.074
2353.21  38.525  24.074
2353.71  38.525  24.074
2354.21  38.525  24.105
2354.71  38.525  24.074
2355.21  38.589  24.074
2355.71  38.525  24.043
2356.21  38.525  24.074
2356.71  38.589  24.074
2357.21  38.461  24.074
2357.71  38.589  24.105
2358.21  38.525  24.043
2358.71  38.653  24.074
2359.21  38.525  24.043
2359.71  38.589  24.105
2360.21  38.589  24.074
2360.71  38.461  24.105
2361.21  38.525  24.074
2361.71  38.525  24.074
2362.21  38.525  24.105
2362.71  38.589  24.074
2363.21  38.525  24.074
2363.71  38.589  24.074
2364.21  38.589  24.074
2364.71  38.589  24.074
2365.21  38.589  24.105
2365.71  38.589  24.105
2366.21  38.525  24.074
2366.71  38.589  24.105
2367.21  38.525  24.074
2367.71  38.525  24.105
2368.21  38.525  24.074
2368.71  38.589  24.105
2369.21  38.589  24.074
2369.71  38.589  24.105
2370.21  38.589  24.074
2370.71  38.717  24.105
2371.21  38.589  24.074
2371.71  38.589  24.105
2372.21  38.525  24.074
2372.71  38.589  24.074
2373.21  38.589  24.074
2373.71  38.589  24.105
2374.21  38.589  24.074
2374.71  38.525  24.074
2375.21  38.589  24.074
2375.71  38.653  24.074
2376.21  38.589  24.074
2376.71  38.589  24.074
2377.21  38.525  24.105
2377.71  38.653  24.074
2378.21  38.589  24.074
2378.71  38.589  24.074
2379.21  38.525  24.074
2379.71  38.589  24.136
2380.21  38.589  24.074
2380.71  38.589  24.136
2381.21  38.525  24.105
2381.71  38.525  24.105
2382.21  38.589  24.105
2382.71  38.589  24.136
2383.21  38.525  24.167
2383.71  38.653  24.074
2384.21  38.525  24.074
2384.71  38.525  24.074
2385.21  38.589  24.105
2385.71  38.653  24.105
2386.21  38.589  24.105
2386.71  38.589  24.074
2387.21  38.653  24.074
2387.71  38.589  24.105
2388.21  38.589  24.105
2388.71  38.525  24.043
2389.21  38.525  24.074
2389.71  38.525  24.043
2390.21  38.589  24.074
2390.71  38.589  24.074
2391.21  38.653  24.074
2391.71  38.589  24.074
2392.21  38.525  24.105
2392.71  38.589  24.136
2393.21  38.589  24.074
2393.71  38.589  24.105
2394.21  38.589  24.105
2394.71  38.525  24.105
2395.21  38.781  24.074
2395.71  38.525  24.074
2396.21  38.653  24.074
2396.71  38.525  24.074
2397.21  38.525  24.074
2397.71  38.653  24.043
2398.21  38.589  24.105
2398.71  38.653  24.105
2399.21  38.589  24.167
2399.71  38.589  24.074
2400.21  38.589  24.074
2400.71  38.589  24.105
2401.21  38.525  24.074
2401.71  38.653  24.074
2402.21  38.589  24.043
2402.71  38.589  24.105
2403.21  38.589  24.105
2403.71  38.589  24.105
2404.21  38.589  24.105
2404.71  38.589  24.105
2405.21  38.525  24.105
2405.71  38.653  24.136
2406.21  38.653  24.074
2406.71  38.653  24.074
2407.21  38.589  24.074
2407.71  38.653  24.105
2408.21  38.589  24.105
2408.71  38.653  24.105
2409.21  38.653  24.105
2409.71  38.589  24.105
2410.21  38.525  24.105
2410.71  38.589  24.105
2411.21  38.589  24.105
2411.71  38.525  24.105
2412.21  38.589  24.105
2412.71  38.653  24.074
2413.21  38.589  24.105
2413.71  38.653  24.074
2414.21  38.589  24.074
2414.71  38.717  24.136
2415.21  38.525  24.136
2415.71  38.653  24.105
2416.21  38.589  24.105
2416.71  38.589  24.105
2417.21  38.653  24.105
2417.71  38.589  24.136
2418.21  38.589  24.105
2418.71  38.589  24.074
2419.21  38.589  24.105
2419.71  38.589  24.105
2420.21  38.589  24.105
2420.71  38.589  24.105
2421.21  38.589  24.136
2421.71  38.589  24.074
2422.21  38.653  24.136
2422.71  38.589  24.197
2423.21  38.589  24.105
2423.72  38.653  24.074
2424.22  38.653  24.105
2424.72  38.525  24.105
2425.22  38.589  24.105
2425.72  38.589  24.105
2426.22  38.589  24.074
2426.72  38.589  24.105
2427.22  38.589  24.105
2427.72  38.461  24.074
2428.22  38.589  24.105
2428.72  38.589  24.105
2429.22  38.589  24.167
2429.72  38.589  24.136
2430.22  38.589  24.074
2430.72  38.589  24.074
2431.22  38.653  24.136
2431.72  38.589  24.105
2432.22  38.589  24.105
2432.72  38.589  24.074
2433.22  38.653  24.136
2433.72  38.589  24.105
2434.22  38.653  24.105
2434.72  38.653  24.136
2435.22  38.589  24.105
2435.72  38.589  24.105
2436.22  38.589  24.043
2436.72  38.589  24.105
2437.22  38.589  24.105
2437.72  38.589  24.074
2438.22  38.653  24.105
2438.72  38.589  24.105
2439.22  38.589  24.074
2439.72  38.653  24.105
2440.22  38.589  24.105
2440.72  38.653  24.074
2441.22  38.653  24.105
2441.72  38.589  24.105
2442.22  38.589  24.105
2442.72  38.653  24.105
2443.22  38.589  24.105
2443.72  38.653  24.074
2444.22  38.589  24.105
2444.72  38.589  24.105
2445.22  38.589  24.105
2445.72  38.653  24.105
2446.22  38.653  24.105
2446.72  38.589  24.043
2447.22  38.589  24.074
2447.72  38.589  24.074
2448.22  38.653  24.136
2448.72  38.589  24.136
2449.22  38.653  24.105
2449.72  38.589  24.105
2450.22  38.589  24.105
2450.72  38.589  24.074
2451.22  38.589  24.105
2451.72  38.589  24.136
2452.22  38.653  24.105
2452.72  38.589  24.074
2453.22  38.653  24.105
2453.72  38.717  24.105
2454.22  38.653  24.105
2454.72  38.589  24.136
2455.22  38.653  24.105
2455.72  38.589  24.167
2456.22  38.589  24.105
2456.72  38.589  24.105
2457.22  38.589  24.074
2457.72  38.653  24.074
2458.22  38.717  24.074
2458.72  38.589  24.136
2459.22  38.589  24.105
2459.72  38.589  24.105
2460.22  38.653  24.105
2460.72  38.717  24.105
2461.22  38.589  24.074
2461.72  38.589  24.105
2462.22  38.589  24.105
2462.72  38.589  24.074
2463.22  38.653  24.105
2463.72  38.653  24.105
2464.22  38.525  24.105
2464.72  38.589  24.105
2465.22  38.653  24.105
2465.72  38.653  24.074
2466.22  38.653  24.105
2466.72  38.653  24.105
2467.22  38.653  24.136
2467.72  38.589  24.136
2468.22  38.653  24.136
2468.72  38.717  24.105
2469.22  38.589  24.105
2469.72  38.589  24.105
2470.22  38.525  24.105
2470.72  38.653  24.136
2471.22  38.653  24.105
2471.72  38.717  24.105
2472.22  38.717  24.105
2472.72  38.589  24.136
2473.22  38.653  24.105
2473.72  38.653  24.105
2474.22  38.653  24.105
2474.72  38.717  24.105
2475.22  38.525  24.105
2475.72  38.653  24.074
2476.22  38.589  24.074
2476.72  38.589  24.105
2477.22  38.653  24.105
2477.72  38.653  24.105
2478.22  38.653  24.105
2478.72  38.589  24.136
2479.22  38.653  24.105
2479.72  38.653  24.136
2480.22  38.653  24.105
2480.72  38.589  24.105
2481.22  38.717  24.136
2481.72  38.653  24.197
2482.22  38.717  24.105
2482.72  38.653  24.105
2483.22  38.653  24.105
2483.72  38.653  24.136
2484.22  38.653  24.105
2484.72  38.653  24.074
2485.22  38.653  24.167
2485.72  38.653  24.074
2486.22  38.653  24.074
2486.72  38.653  24.105
2487.22  38.653  24.105
2487.72  38.653  24.105
2488.22  38.717  24.136
2488.72  38.717  24.105
2489.22  38.653  24.136
2489.72  38.717  24.105
2490.22  38.717  24.167
2490.72  38.653  24.043
2491.22  38.589  24.105
2491.72  38.589  24.136
2492.22  38.717  24.136
2492.72  38.653  24.105
2493.22  38.653  24.136
2493.72  38.653  24.105
2494.22  38.717  24.105
2494.72  38.653  24.105
2495.22  38.653  24.105
2495.72  38.717  24.136
2496.22  38.653  24.136
2496.72  38.653  24.074
2497.22  38.653  24.105
2497.72  38.653  24.105
2498.22  38.589  24.105
2498.72  38.653  24.136
2499.22  38.653  24.105
2499.72  38.717  24.197
2500.22  38.653  24.136
2500.72  38.717  24.105
2501.22  38.781  24.136
2501.72  38.653  24.105
