   2.00  23.513  23.489
   2.50  23.513  23.458
   3.00  23.539  23.458
   3.50  23.487  23.489
   4.00  23.513  23.458
   4.50  23.513  23.489
   5.00  23.513  23.458
   5.50  23.513  23.489
   6.00  23.513  23.489
   6.50  23.513  23.489
   7.00  23.513  23.458
   7.50  23.513  23.489
   8.00  23.539  23.458
   8.50  23.513  23.458
   9.00  23.513  23.489
   9.50  23.513  23.458
  10.00  23.513  23.489
  10.50  23.539  23.489
  11.00  23.487  23.489
  11.50  23.513  23.489
  12.00  23.539  23.458
  12.50  23.539  23.458
  13.00  23.513  23.458
  13.50  23.513  23.458
  14.00  23.539  23.489
  14.50  23.513  23.458
  15.00  23.539  23.427
  15.50  23.539  23.458
  16.00  23.565  23.458
  16.50  23.565  23.458
  17.00  23.591  23.458
  17.50  23.617  23.458
  18.00  23.617  23.458
  18.50  23.643  23.458
  19.00  23.643  23.427
  19.50  23.670  23.458
  20.00  23.696  23.458
  20.50  23.722  23.489
  21.00  23.722  23.458
  21.50  23.800  23.458
  22.00  23.748  23.458
  22.50  23.748  23.489
  23.00  23.800  23.520
  23.50  23.800  23.489
  24.00  23.800  23.458
  24.50  23.852  23.458
  25.00  23.852  23.458
  25.50  23.878  23.458
  26.00  23.905  23.458
  26.50  23.905  23.489
  27.00  23.931  23.489
  27.50  23.957  23.458
  28.00  23.983  23.489
  28.50  23.983  23.458
  29.00  24.009  23.458
  29.50  24.009  23.427
  30.00  24.061  23.458
  30.50  24.061  23.489
  31.00  24.061  23.489
  31.50  24.087  23.489
  32.00  24.113  23.489
  32.50  24.140  23.458
  33.00  24.166  23.458
  33.50  24.140  23.458
  34.00  24.166  23.489
  34.50  24.192  23.489
  35.00  24.244  23.489
  35.50  24.270  23.458
  36.00  24.270  23.427
  36.50  24.270  23.489
  37.00  24.270  23.489
  37.50  24.348  23.458
  38.00  24.322  23.489
  38.50  24.322  23.520
  39.00  24.322  23.458
  39.50  24.375  23.520
  40.00  24.348  23.458
  40.50  24.375  23.489
  41.00  24.401  23.489
  41.50  24.401  23.458
  42.00  24.453  23.458
  42.50  24.427  23.458
  43.00  24.479  23.458
  43.50  24.479  23.489
  44.00  24.479  23.489
  44.50  24.479  23.489
  45.00  24.531  23.489
  45.50  24.531  23.458
  46.00  24.531  23.458
  46.50  24.557  23.458
  47.00  24.557  23.458
  47.51  24.557  23.396
  48.01  24.583  23.489
  48.51  24.610  23.489
  49.01  24.636  23.458
  49.51  24.636  23.458
  50.01  24.636  23.489
  50.51  24.636  23.458
  51.01  24.636  23.458
  51.51  24.714  23.489
  52.01  24.688  23.458
  52.51  24.688  23.458
  53.01  24.662  23.458
  53.51  24.714  23.458
  54.01  24.714  23.458
  54.51  24.766  23.489
  55.01  24.740  23.458
  55.51  24.766  23.458
  56.01  24.792  23.427
  56.51  24.792  23.458
  57.01  24.792  23.458
  57.51  24.819  23.458
  58.01  24.792  23.520
  58.51  24.819  23.458
  59.01  24.845  23.458
  59.51  24.845  23.520
  60.01  24.871  23.458
  60.51  24.897  23.489
  61.01  24.871  23.458
  61.51  24.897  23.489
  62.01  24.871  23.458
  62.51  24.923  23.489
  63.01  24.949  23.489
  63.51  24.949  23.489
  64.01  24.923  23.489
  64.51  24.923  23.458
  65.01  24.949  23.458
  65.51  25.005  23.489
  66.01  24.975  23.489
  66.51  24.975  23.458
  67.01  25.114  23.458
  67.51  25.114  23.427
  68.01  25.114  23.489
  68.51  25.114  23.489
  69.01  25.114  23.489
  69.51  25.330  23.458
  70.01  25.330  23.458
  70.51  25.438  23.458
  71.01  25.438  23.458
  71.51  25.330  23.520
  72.01  25.438  23.520
  72.51  25.330  23.427
  73.01  25.547  23.458
  73.51  25.547  23.489
  74.01  25.438  23.427
  74.51  25.547  23.458
  75.01  25.547  23.489
  75.51  25.438  23.458
  76.01  25.655  23.458
  76.51  25.438  23.489
  77.01  25.763  23.458
  77.51  25.655  23.489
  78.01  25.763  23.489
  78.51  25.871  23.458
  79.01  25.871  23.458
  79.51  25.871  23.458
  80.01  26.088  23.458
  80.51  25.980  23.489
  81.01  26.088  23.458
  81.51  25.980  23.458
  82.01  26.088  23.458
  82.51  26.088  23.458
  83.01  26.304  23.489
  83.51  26.196  23.458
  84.01  26.196  23.458
  84.51  26.088  23.458
  85.01  26.304  23.458
  85.51  26.413  23.458
  86.01  26.413  23.489
  86.51  26.521  23.458
  87.01  26.413  23.489
  87.51  26.413  23.489
  88.01  26.629  23.458
  88.51  26.521  23.489
  89.01  26.629  23.489
  89.51  26.521  23.489
  90.01  26.629  23.458
  90.51  26.521  23.458
  91.01  26.521  23.489
  91.51  26.629  23.458
  92.01  26.846  23.458
  92.51  26.954  23.458
  93.01  26.737  23.489
  93.51  26.737  23.427
  94.01  26.846  23.458
  94.51  26.846  23.458
  95.01  26.846  23.489
  95.51  26.954  23.489
  96.01  26.954  23.458
  96.51  27.062  23.458
  97.01  27.062  23.458
  97.51  27.062  23.489
  98.01  27.170  23.458
  98.51  27.170  23.458
  99.01  27.170  23.489
  99.51  27.170  23.489
 100.01  27.170  23.458
 100.51  27.170  23.458
 101.01  27.279  23.489
 101.51  27.062  23.458
 102.01  27.279  23.458
 102.51  27.387  23.458
 103.01  27.387  23.458
 103.51  27.387  23.489
 104.01  27.387  23.489
 104.51  27.387  23.520
 105.01  27.495  23.458
 105.51  27.495  23.489
 106.01  27.495  23.458
 106.51  27.603  23.458
 107.01  27.603  23.489
 107.51  27.603  23.458
 108.01  27.603  23.458
 108.51  27.603  23.458
 109.01  27.712  23.489
 109.51  27.820  23.458
 110.01  27.712  23.458
 110.51  27.712  23.489
 111.01  27.820  23.458
 111.51  27.820  23.489
 112.01  27.820  23.489
 112.51  27.820  23.458
 113.01  27.928  23.458
 113.51  27.928  23.458
 114.01  27.928  23.458
 114.51  28.036  23.458
 115.01  28.036  23.489
 115.51  28.036  23.489
 116.01  28.036  23.458
 116.51  28.036  23.489
 117.01  28.145  23.458
 117.51  28.145  23.520
 118.01  28.145  23.489
 118.51  28.253  23.489
 119.01  28.036  23.458
 119.51  28.145  23.366
 120.01  28.253  23.458
 120.51  28.253  23.489
 121.01  28.361  23.458
 121.51  28.253  23.489
 122.01  28.253  23.489
 122.51  28.253  23.489
 123.01  28.469  23.458
 123.51  28.361  23.520
 124.01  28.361  23.520
 124.51  28.469  23.489
 125.01  28.578  23.489
 125.51  28.578  23.520
 126.01  28.578  23.489
 126.51  28.686  23.489
 127.01  28.578  23.489
 127.51  28.686  23.458
 128.01  28.686  23.520
 128.51  28.578  23.427
 129.01  28.794  23.489
 129.51  28.794  23.458
 130.01  28.686  23.458
 130.51  28.686  23.458
 131.01  28.902  23.489
 131.51  28.794  23.489
 132.01  28.794  23.489
 132.51  28.902  23.458
 133.01  28.794  23.489
 133.51  28.902  23.458
 134.01  29.119  23.489
 134.51  28.902  23.458
 135.01  29.011  23.458
 135.51  29.119  23.458
 136.01  29.011  23.520
 136.51  29.011  23.458
 137.01  29.011  23.458
 137.51  29.011  23.458
 138.01  29.119  23.458
 138.51  29.011  23.489
 139.01  29.227  23.489
 139.51  29.227  23.489
 140.01  29.227  23.458
 140.51  29.227  23.489
 141.01  29.227  23.489
 141.51  29.119  23.489
 142.01  29.227  23.489
 142.51  29.227  23.489
 143.01  29.227  23.458
 143.51  29.335  23.489
 144.01  29.552  23.458
 144.51  29.444  23.458
 145.01  29.335  23.458
 145.51  29.335  23.520
 146.01  29.444  23.458
 146.51  29.335  23.458
 147.01  29.552  23.427
 147.51  29.552  23.489
 148.01  29.552  23.520
 148.51  29.552  23.489
 149.01  29.552  23.458
 149.51  29.552  23.489
 150.01  29.552  23.458
 150.51  29.552  23.458
 151.01  29.660  23.489
 151.51  29.768  23.458
 152.01  29.660  23.458
 152.51  29.768  23.489
 153.01  29.768  23.427
 153.51  29.660  23.489
 154.01  29.877  23.489
 154.51  29.768  23.489
 155.01  29.768  23.458
 155.51  29.768  23.489
 156.01  29.877  23.489
 156.51  29.877  23.458
 157.01  29.877  23.458
 157.51  29.877  23.489
 158.01  29.877  23.458
 158.51  29.877  23.458
 159.01  29.985  23.520
 159.51  29.877  23.489
 160.01  30.101  23.520
 160.51  29.877  23.427
 161.01  29.985  23.520
 161.51  29.985  23.489
 162.01  30.101  23.458
 162.51  30.217  23.489
 163.01  30.217  23.458
 163.51  30.101  23.489
 164.01  30.217  23.520
 164.51  29.877  23.489
 165.01  30.334  23.458
 165.51  30.101  23.489
 166.01  30.217  23.458
 166.51  30.217  23.489
 167.01  30.217  23.489
 167.51  30.451  23.520
 168.01  30.334  23.489
 168.51  30.334  23.489
 169.01  30.101  23.520
 169.51  30.217  23.489
 170.01  30.568  23.458
 170.51  30.334  23.489
 171.01  30.451  23.458
 171.52  30.451  23.489
 172.02  30.451  23.489
 172.52  30.451  23.458
 173.02  30.685  23.458
 173.52  30.568  23.489
 174.02  30.568  23.458
 174.52  30.451  23.520
 175.02  30.568  23.458
 175.52  30.568  23.458
 176.02  30.568  23.489
 176.52  30.568  23.427
 177.02  30.568  23.458
 177.52  30.568  23.520
 178.02  30.685  23.458
 178.52  30.685  23.427
 179.02  30.685  23.458
 179.52  30.802  23.458
 180.02  30.685  23.489
 180.52  30.685  23.489
 181.02  30.802  23.489
 181.52  30.919  23.458
 182.02  30.802  23.489
 182.52  30.919  23.458
 183.02  30.919  23.520
 183.52  30.919  23.489
 184.02  30.802  23.489
 184.52  30.919  23.489
 185.02  31.036  23.427
 185.52  30.919  23.458
 186.02  30.919  23.489
 186.52  30.919  23.489
 187.02  31.036  23.458
 187.52  31.036  23.520
 188.02  31.036  23.520
 188.52  31.036  23.489
 189.02  31.152  23.520
 189.52  31.036  23.458
 190.02  31.036  23.489
 190.52  31.152  23.489
 191.02  31.152  23.489
 191.52  31.152  23.458
 192.02  31.269  23.489
 192.52  31.152  23.458
 193.02  31.152  23.489
 193.52  31.152  23.489
 194.02  31.386  23.458
 194.52  31.269  23.489
 195.02  31.269  23.520
 195.52  31.269  23.520
 196.02  31.269  23.489
 196.52  31.386  23.458
 197.02  31.269  23.458
 197.52  31.386  23.489
 198.02  31.386  23.458
 198.52  31.503  23.489
 199.02  31.386  23.458
 199.52  31.503  23.489
 200.02  31.503  23.489
 200.52  31.386  23.489
 201.02  31.503  23.458
 201.52  31.620  23.489
 202.02  31.503  23.520
 202.52  31.737  23.489
 203.02  31.620  23.489
 203.52  31.503  23.458
 204.02  31.620  23.520
 204.52  31.386  23.458
 205.02  31.503  23.489
 205.52  31.620  23.458
 206.02  31.620  23.458
 206.52  31.620  23.489
 207.02  31.737  23.489
 207.52  31.620  23.489
 208.02  31.620  23.458
 208.52  31.737  23.458
 209.02  31.737  23.427
 209.52  31.737  23.458
 210.02  31.620  23.458
 210.52  31.737  23.427
 211.02  31.854  23.489
 211.52  31.620  23.489
 212.02  31.854  23.489
 212.52  31.854  23.489
 213.02  31.854  23.520
 213.52  31.971  23.489
 214.02  31.854  23.489
 214.52  32.087  23.489
 215.02  31.971  23.489
 215.52  31.971  23.489
 216.02  31.971  23.489
 216.52  32.087  23.489
 217.02  31.971  23.458
 217.52  31.971  23.489
 218.02  31.854  23.489
 218.52  32.087  23.520
 219.02  32.204  23.489
 219.52  32.087  23.489
 220.02  31.971  23.489
 220.52  32.204  23.489
 221.02  32.087  23.489
 221.52  32.087  23.489
 222.02  32.087  23.489
 222.52  32.204  23.489
 223.02  32.321  23.489
 223.52  32.087  23.489
 224.02  32.438  23.489
 224.52  32.204  23.489
 225.02  32.321  23.489
 225.52  32.204  23.458
 226.02  32.321  23.489
 226.52  32.438  23.427
 227.02  32.555  23.520
 227.52  32.087  23.550
 228.02  32.321  23.489
 228.52  32.321  23.489
 229.02  32.321  23.458
 229.52  32.438  23.489
 230.02  32.438  23.489
 230.52  32.438  23.458
 231.02  32.555  23.489
 231.52  32.555  23.458
 232.02  32.555  23.520
 232.52  32.438  23.489
 233.02  32.438  23.520
 233.52  32.555  23.520
 234.02  32.438  23.489
 234.52  32.555  23.489
 235.02  32.438  23.489
 235.52  32.672  23.489
 236.02  32.672  23.489
 236.52  32.555  23.520
 237.02  32.555  23.489
 237.52  32.672  23.520
 238.02  32.555  23.489
 238.52  32.672  23.458
 239.02  32.789  23.520
 239.52  32.672  23.489
 240.02  32.906  23.520
 240.52  32.672  23.489
 241.02  32.672  23.489
 241.52  32.672  23.489
 242.02  32.906  23.520
 242.52  32.906  23.489
 243.02  32.906  23.458
 243.52  32.789  23.489
 244.02  32.906  23.489
 244.52  32.906  23.489
 245.02  32.906  23.550
 245.52  33.022  23.520
 246.02  33.022  23.520
 246.52  32.672  23.489
 247.02  32.906  23.489
 247.52  32.906  23.520
 248.02  32.906  23.520
 248.52  33.022  23.489
 249.02  32.906  23.489
 249.52  33.022  23.520
 250.02  33.022  23.489
 250.52  33.022  23.520
 251.02  33.022  23.489
 251.52  33.022  23.489
 252.02  33.022  23.489
 252.52  33.139  23.520
 253.02  33.022  23.489
 253.52  32.906  23.458
 254.02  33.022  23.520
 254.52  33.139  23.489
 255.02  33.022  23.489
 255.52  33.139  23.489
 256.02  33.139  23.489
 256.52  33.022  23.489
 257.02  33.256  23.520
 257.52  33.139  23.489
 258.02  33.022  23.489
 258.52  33.256  23.489
 259.02  33.139  23.489
 259.52  33.256  23.520
 260.02  33.256  23.520
 260.52  33.256  23.489
 261.02  33.256  23.458
 261.52  33.256  23.489
 262.02  33.373  23.520
 262.52  33.373  23.489
 263.02  33.373  23.458
 263.52  33.373  23.489
 264.02  33.373  23.458
 264.52  33.373  23.489
 265.02  33.490  23.458
 265.52  33.490  23.489
 266.02  33.373  23.489
 266.52  33.490  23.520
 267.02  33.490  23.489
 267.52  33.607  23.520
 268.02  33.373  23.489
 268.52  33.490  23.489
 269.02  33.490  23.458
 269.52  33.373  23.489
 270.02  33.490  23.458
 270.52  33.607  23.489
 271.02  33.724  23.489
 271.52  33.607  23.520
 272.02  33.373  23.520
 272.52  33.724  23.520
 273.02  33.607  23.489
 273.52  33.724  23.489
 274.02  33.607  23.489
 274.52  33.841  23.489
 275.02  33.607  23.489
 275.52  33.607  23.489
 276.02  33.724  23.489
 276.52  33.724  23.520
 277.02  33.724  23.550
 277.52  33.607  23.489
 278.02  33.724  23.520
 278.52  33.724  23.520
 279.02  33.841  23.520
 279.52  33.724  23.458
 280.02  33.724  23.458
 280.52  33.841  23.489
 281.02  33.841  23.458
 281.52  33.607  23.489
 282.02  33.841  23.489
 282.52  33.841  23.489
 283.02  33.957  23.520
 283.52  33.724  23.489
 284.02  33.957  23.489
 284.52  33.841  23.489
 285.03  33.957  23.520
 285.53  33.957  23.458
 286.03  33.957  23.520
 286.53  33.957  23.520
 287.03  34.074  23.489
 287.53  33.957  23.458
 288.03  34.191  23.489
 288.53  33.957  23.520
 289.03  33.957  23.458
 289.53  33.957  23.489
 290.03  33.957  23.520
 290.53  33.957  23.489
 291.03  34.308  23.520
 291.53  34.074  23.489
 292.03  34.074  23.489
 292.53  34.074  23.489
 293.03  33.957  23.489
 293.53  34.074  23.489
 294.03  34.191  23.520
 294.53  34.074  23.520
 295.03  34.191  23.520
 295.53  34.308  23.520
 296.03  34.191  23.489
 296.53  34.191  23.458
 297.03  34.191  23.489
 297.53  34.308  23.550
 298.03  34.308  23.520
 298.53  34.191  23.489
 299.03  34.191  23.458
 299.53  34.308  23.489
 300.03  34.425  23.520
 300.53  34.191  23.489
 301.03  34.425  23.520
 301.53  34.308  23.489
 302.03  34.308  23.489
 302.53  34.308  23.489
 303.03  34.191  23.489
 303.53  34.308  23.489
 304.03  34.542  23.520
 304.53  34.542  23.520
 305.03  34.425  23.489
 305.53  33.957  23.520
 306.03  34.425  23.489
 306.53  34.425  23.489
 307.03  34.425  23.489
 307.53  34.425  23.520
 308.03  34.542  23.520
 308.53  34.308  23.489
 309.03  34.308  23.550
 309.53  34.659  23.520
 310.03  34.425  23.489
 310.53  34.308  23.489
 311.03  34.542  23.520
 311.53  34.542  23.550
 312.03  34.659  23.489
 312.53  34.542  23.520
 313.03  34.542  23.550
 313.53  34.659  23.520
 314.03  34.659  23.520
 314.53  34.542  23.520
 315.03  34.542  23.520
 315.53  34.425  23.520
 316.03  34.542  23.520
 316.53  34.542  23.520
 317.03  34.659  23.550
 317.53  34.776  23.489
 318.03  34.659  23.550
 318.53  34.659  23.520
 319.03  34.659  23.520
 319.53  34.776  23.520
 320.03  34.659  23.550
 320.53  34.776  23.520
 321.03  34.659  23.520
 321.53  34.776  23.520
 322.03  34.776  23.520
 322.53  34.892  23.520
 323.03  34.776  23.520
 323.53  34.776  23.520
 324.03  34.892  23.489
 324.53  34.776  23.520
 325.03  34.776  23.489
 325.53  34.659  23.489
 326.03  34.892  23.489
 326.53  34.776  23.520
 327.03  34.892  23.489
 327.53  34.892  23.489
 328.03  34.892  23.520
 328.53  34.659  23.520
 329.03  34.892  23.520
 329.53  34.892  23.520
 330.03  35.005  23.489
 330.53  35.005  23.489
 331.03  35.005  23.520
 331.53  35.005  23.550
 332.03  34.892  23.458
 332.53  35.005  23.458
 333.03  35.005  23.520
 333.53  34.892  23.520
 334.03  35.005  23.489
 334.53  34.892  23.520
 335.03  35.005  23.550
 335.53  35.005  23.520
 336.03  35.005  23.458
 336.53  35.069  23.520
 337.03  35.133  23.520
 337.53  35.005  23.458
 338.03  35.069  23.489
 338.53  35.069  23.520
 339.03  35.133  23.489
 339.53  35.069  23.520
 340.03  35.133  23.520
 340.53  35.069  23.489
 341.03  35.069  23.489
 341.53  35.133  23.489
 342.03  35.069  23.550
 342.53  35.133  23.520
 343.03  35.133  23.520
 343.53  35.133  23.520
 344.03  35.133  23.489
 344.53  35.197  23.489
 345.03  35.133  23.489
 345.53  35.133  23.489
 346.03  35.133  23.489
 346.53  35.133  23.520
 347.03  35.133  23.489
 347.53  35.133  23.520
 348.03  35.133  23.520
 348.53  35.133  23.520
 349.03  35.133  23.489
 349.53  35.261  23.520
 350.03  35.197  23.489
 350.53  35.133  23.520
 351.03  35.197  23.520
 351.53  35.197  23.489
 352.03  35.261  23.489
 352.53  35.261  23.520
 353.03  35.197  23.520
 353.53  35.197  23.520
 354.03  35.197  23.520
 354.53  35.261  23.520
 355.03  35.197  23.520
 355.53  35.261  23.520
 356.03  35.261  23.489
 356.53  35.261  23.520
 357.03  35.261  23.489
 357.53  35.261  23.520
 358.03  35.261  23.489
 358.53  35.261  23.520
 359.03  35.197  23.520
 359.53  35.325  23.520
 360.03  35.325  23.520
 360.53  35.325  23.489
 361.03  35.325  23.520
 361.53  35.325  23.520
 362.03  35.325  23.520
 362.53  35.325  23.520
 363.03  35.389  23.520
 363.53  35.389  23.520
 364.03  35.325  23.489
 364.53  35.325  23.520
 365.03  35.325  23.520
 365.53  35.325  23.520
 366.03  35.453  23.520
 366.53  35.325  23.520
 367.03  35.389  23.520
 367.53  35.389  23.520
 368.03  35.325  23.489
 368.53  35.389  23.520
 369.03  35.389  23.489
 369.53  35.453  23.520
 370.03  35.453  23.550
 370.53  35.517  23.520
 371.03  35.389  23.520
 371.53  35.453  23.550
 372.03  35.389  23.550
 372.53  35.389  23.550
 373.03  35.453  23.550
 373.53  35.453  23.520
 374.03  35.453  23.520
 374.53  35.389  23.458
 375.03  35.453  23.489
 375.53  35.517  23.520
 376.03  35.517  23.489
 376.53  35.389  23.550
 377.03  35.453  23.550
 377.53  35.453  23.520
 378.03  35.517  23.550
 378.53  35.517  23.520
 379.03  35.517  23.520
 379.53  35.517  23.489
 380.03  35.517  23.550
 380.53  35.517  23.550
 381.03  35.581  23.520
 381.53  35.517  23.520
 382.03  35.517  23.520
 382.53  35.581  23.520
 383.03  35.581  23.520
 383.53  35.581  23.550
 384.03  35.517  23.520
 384.53  35.581  23.550
 385.03  35.517  23.520
 385.53  35.581  23.550
 386.03  35.581  23.489
 386.53  35.581  23.550
 387.04  35.581  23.520
 387.54  35.581  23.550
 388.04  35.645  23.520
 388.54  35.581  23.550
 389.04  35.581  23.550
 389.54  35.645  23.520
 390.04  35.645  23.550
 390.54  35.581  23.550
 391.04  35.517  23.520
 391.54  35.581  23.550
 392.04  35.581  23.489
 392.54  35.581  23.520
 393.04  35.709  23.520
 393.54  35.645  23.520
 394.04  35.645  23.520
 394.54  35.645  23.520
 395.04  35.709  23.520
 395.54  35.645  23.489
 396.04  35.517  23.520
 396.54  35.773  23.520
 397.04  35.645  23.520
 397.54  35.773  23.489
 398.04  35.709  23.550
 398.54  35.709  23.550
 399.04  35.709  23.550
 399.54  35.773  23.550
 400.04  35.773  23.550
 400.54  35.709  23.520
 401.04  35.709  23.520
 401.54  35.709  23.489
 402.04  35.709  23.520
 402.54  35.709  23.520
 403.04  35.773  23.550
 403.54  35.709  23.581
 404.04  35.709  23.520
 404.54  35.773  23.520
 405.04  35.709  23.520
 405.54  35.773  23.520
 406.04  35.773  23.520
 406.54  35.709  23.520
 407.04  35.709  23.520
 407.54  35.709  23.520
 408.04  35.709  23.520
 408.54  35.773  23.520
 409.04  35.773  23.550
 409.54  35.837  23.520
 410.04  35.773  23.520
 410.54  35.773  23.520
 411.04  35.773  23.520
 411.54  35.837  23.520
 412.04  35.773  23.520
 412.54  35.837  23.520
 413.04  35.965  23.550
 413.54  35.901  23.550
 414.04  35.837  23.520
 414.54  35.837  23.520
 415.04  35.901  23.520
 415.54  35.837  23.520
 416.04  35.837  23.550
 416.54  35.901  23.550
 417.04  35.901  23.520
 417.54  35.773  23.520
 418.04  35.901  23.550
 418.54  35.901  23.520
 419.04  35.901  23.520
 419.54  35.837  23.520
 420.04  35.901  23.520
 420.54  35.901  23.550
 421.04  35.901  23.520
 421.54  35.901  23.550
 422.04  35.901  23.489
 422.54  35.901  23.550
 423.04  35.901  23.550
 423.54  35.837  23.520
 424.04  35.901  23.520
 424.54  35.965  23.520
 425.04  35.837  23.520
 425.54  35.901  23.520
 426.04  35.965  23.520
 426.54  35.901  23.520
 427.04  35.965  23.520
 427.54  35.837  23.520
 428.04  35.965  23.520
 428.54  36.029  23.581
 429.04  36.029  23.520
 429.54  36.029  23.550
 430.04  36.093  23.550
 430.54  35.965  23.550
 431.04  35.965  23.550
 431.54  36.029  23.550
 432.04  35.965  23.520
 432.54  35.965  23.550
 433.04  36.029  23.489
 433.54  36.029  23.520
 434.04  36.029  23.550
 434.54  35.965  23.550
 435.04  36.093  23.581
 435.54  36.029  23.550
 436.04  36.029  23.550
 436.54  36.093  23.550
 437.04  36.029  23.581
 437.54  35.965  23.520
 438.04  36.029  23.520
 438.54  36.029  23.550
 439.04  36.093  23.489
 439.54  36.093  23.581
 440.04  36.093  23.520
 440.54  36.093  23.550
 441.04  36.093  23.550
 441.54  36.093  23.550
 442.04  36.093  23.550
 442.54  36.093  23.550
 443.04  36.157  23.550
 443.54  36.157  23.520
 444.04  36.093  23.520
 444.54  36.093  23.520
 445.04  36.157  23.550
 445.54  36.093  23.520
 446.04  36.093  23.550
 446.54  36.157  23.520
 447.04  36.157  23.550
 447.54  36.093  23.550
 448.04  36.157  23.520
 448.54  36.157  23.520
 449.04  36.093  23.550
 449.54  36.029  23.520
 450.04  36.093  23.520
 450.54  36.157  23.520
 451.04  36.157  23.550
 451.54  36.093  23.520
 452.04  36.157  23.458
 452.54  36.157  23.550
 453.04  36.157  23.520
 453.54  36.157  23.550
 454.04  36.157  23.520
 454.54  36.157  23.520
 455.04  36.157  23.550
 455.54  36.221  23.550
 456.04  36.221  23.520
 456.54  36.157  23.550
 457.04  36.221  23.520
 457.54  36.221  23.550
 458.04  36.221  23.520
 458.54  36.157  23.489
 459.04  36.285  23.520
 459.54  36.221  23.520
 460.04  36.285  23.520
 460.54  36.285  23.550
 461.04  36.221  23.550
 461.54  36.285  23.550
 462.04  36.221  23.550
 462.54  36.349  23.550
 463.04  36.285  23.550
 463.54  36.285  23.489
 464.04  36.285  23.520
 464.54  36.285  23.550
 465.04  36.285  23.520
 465.54  36.285  23.520
 466.04  36.413  23.520
 466.54  36.285  23.489
 467.04  36.285  23.550
 467.54  36.285  23.550
 468.04  36.221  23.489
 468.54  36.349  23.489
 469.04  36.285  23.520
 469.54  36.285  23.520
 470.04  36.413  23.520
 470.54  36.221  23.520
 471.04  36.349  23.550
 471.54  36.349  23.520
 472.04  36.349  23.550
 472.54  36.285  23.550
 473.04  36.285  23.520
 473.54  36.285  23.550
 474.04  36.285  23.550
 474.54  36.285  23.520
 475.04  36.413  23.520
 475.54  36.349  23.520
 476.04  36.349  23.550
 476.54  36.413  23.550
 477.04  36.413  23.550
 477.54  36.349  23.550
 478.04  36.413  23.520
 478.54  36.349  23.520
 479.04  36.413  23.550
 479.54  36.413  23.550
 480.04  36.413  23.520
 480.54  36.349  23.550
 481.04  36.349  23.520
 481.54  36.413  23.520
 482.04  36.477  23.520
 482.54  36.413  23.550
 483.04  36.349  23.520
 483.54  36.541  23.581
 484.04  36.413  23.550
 484.54  36.413  23.550
 485.04  36.477  23.550
 485.54  36.413  23.550
 486.04  36.541  23.581
 486.54  36.413  23.581
 487.04  36.477  23.550
 487.54  36.413  23.550
 488.04  36.413  23.550
 488.54  36.349  23.550
 489.04  36.477  23.550
 489.54  36.413  23.550
 490.04  36.477  23.612
 490.54  36.413  23.520
 491.04  36.413  23.550
 491.54  36.477  23.550
 492.04  36.477  23.581
 492.54  36.477  23.520
 493.04  36.541  23.550
 493.54  36.477  23.612
 494.04  36.541  23.520
 494.54  36.541  23.550
 495.04  36.477  23.550
 495.54  36.541  23.550
 496.04  36.541  23.550
 496.54  36.541  23.581
 497.04  36.541  23.550
 497.54  36.477  23.520
 498.04  36.541  23.520
 498.54  36.477  23.520
 499.04  36.541  23.581
 499.54  36.477  23.550
 500.04  36.733  23.550
 500.55  36.669  23.550
 501.05  36.541  23.581
 501.55  36.477  23.550
 502.05  36.477  23.520
 502.55  36.605  23.550
 503.05  36.605  23.550
 503.55  36.541  23.550
 504.05  36.541  23.550
 504.55  36.605  23.550
 505.05  36.541  23.550
 505.55  36.477  23.550
 506.05  36.605  23.550
 506.55  36.605  23.550
 507.05  36.733  23.550
 507.55  36.541  23.581
 508.05  36.541  23.520
 508.55  36.605  23.550
 509.05  36.541  23.520
 509.55  36.669  23.581
 510.05  36.605  23.550
 510.55  36.605  23.612
 511.05  36.605  23.550
 511.55  36.605  23.550
 512.05  36.605  23.550
 512.55  36.669  23.581
 513.05  36.733  23.520
 513.55  36.733  23.520
 514.05  36.541  23.520
 514.55  36.669  23.489
 515.05  36.669  23.489
 515.55  36.669  23.550
 516.05  36.669  23.550
 516.55  36.733  23.550
 517.05  36.669  23.520
 517.55  36.669  23.520
 518.05  36.669  23.581
 518.55  36.669  23.550
 519.05  36.669  23.550
 519.55  36.733  23.581
 520.05  36.669  23.550
 520.55  36.669  23.550
 521.05  36.669  23.550
 521.55  36.733  23.550
 522.05  36.605  23.550
 522.55  36.669  23.581
 523.05  36.733  23.550
 523.55  36.669  23.520
 524.05  36.669  23.550
 524.55  36.797  23.550
 525.05  36.733  23.550
 525.55  36.733  23.581
 526.05  36.797  23.581
 526.55  36.733  23.550
 527.05  36.733  23.550
 527.55  36.733  23.550
 528.05  36.733  23.550
 528.55  36.797  23.550
 529.05  36.733  23.550
 529.55  36.797  23.581
 530.05  36.733  23.550
 530.55  36.733  23.550
 531.05  36.797  23.550
 531.55  36.797  23.581
 532.05  36.797  23.550
 532.55  36.733  23.581
 533.05  36.669  23.550
 533.55  36.733  23.520
 534.05  36.797  23.550
 534.55  36.797  23.550
 535.05  36.861  23.550
 535.55  36.733  23.550
 536.05  36.861  23.612
 536.55  36.797  23.581
 537.05  36.797  23.612
 537.55  36.925  23.550
 538.05  36.797  23.581
 538.55  36.797  23.581
 539.05  36.861  23.581
 539.55  36.797  23.550
 540.05  36.797  23.581
 540.55  36.733  23.581
 541.05  36.733  23.550
 541.55  36.861  23.612
 542.05  36.797  23.550
 542.55  36.861  23.581
 543.05  36.861  23.550
 543.55  36.733  23.550
 544.05  36.861  23.581
 544.55  36.797  23.581
 545.05  36.797  23.550
 545.55  36.861  23.581
 546.05  36.861  23.550
 546.55  36.861  23.520
 547.05  36.861  23.550
 547.55  36.925  23.581
 548.05  36.925  23.643
 548.55  36.861  23.581
 549.05  36.925  23.581
 549.55  36.925  23.550
 550.05  36.925  23.550
 550.55  36.861  23.550
 551.05  36.861  23.581
 551.55  36.989  23.550
 552.05  36.925  23.581
 552.55  36.925  23.581
 553.05  36.861  23.520
 553.55  36.925  23.581
 554.05  36.925  23.550
 554.55  36.925  23.581
 555.05  36.925  23.581
 555.55  36.925  23.581
 556.05  36.925  23.581
 556.55  36.925  23.550
 557.05  36.925  23.581
 557.55  36.989  23.612
 558.05  36.925  23.581
 558.55  36.925  23.581
 559.05  36.989  23.550
 559.55  36.989  23.520
 560.05  36.925  23.581
 560.55  36.989  23.550
 561.05  36.989  23.550
 561.55  36.861  23.550
 562.05  37.053  23.581
 562.55  37.053  23.550
 563.05  37.053  23.581
 563.55  36.989  23.581
 564.05  36.989  23.550
 564.55  36.925  23.581
 565.05  36.989  23.550
 565.55  36.925  23.550
 566.05  36.989  23.550
 566.55  36.989  23.581
 567.05  36.989  23.612
 567.55  36.925  23.520
 568.05  36.989  23.550
 568.55  36.989  23.550
 569.05  36.989  23.581
 569.55  36.989  23.520
 570.05  37.053  23.550
 570.55  36.989  23.520
 571.05  37.053  23.643
 571.55  36.989  23.550
 572.05  36.989  23.581
 572.55  36.989  23.581
 573.05  36.989  23.520
 573.55  36.925  23.581
 574.05  37.117  23.550
 574.55  36.989  23.550
 575.05  37.053  23.581
 575.55  37.053  23.612
 576.05  37.053  23.581
 576.55  36.989  23.550
 577.05  37.053  23.581
 577.55  37.053  23.550
 578.05  37.053  23.612
 578.55  37.053  23.581
 579.05  37.117  23.581
 579.55  37.117  23.581
 580.05  37.053  23.581
 580.55  36.989  23.581
 581.05  37.053  23.612
 581.55  37.117  23.612
 582.05  37.117  23.550
 582.55  37.053  23.581
 583.05  37.117  23.550
 583.55  37.053  23.581
 584.05  37.117  23.581
 584.55  37.053  23.581
 585.05  37.117  23.581
 585.55  37.053  23.581
 586.05  37.117  23.581
 586.55  37.181  23.550
 587.05  37.117  23.581
 587.55  37.181  23.581
 588.05  37.181  23.581
 588.55  37.117  23.581
 589.05  37.117  23.581
 589.55  37.117  23.550
 590.05  37.117  23.581
 590.55  37.181  23.612
 591.05  37.117  23.550
 591.55  37.181  23.581
 592.05  37.181  23.612
 592.55  37.117  23.581
 593.05  37.181  23.550
 593.55  37.117  23.581
 594.05  37.245  23.612
 594.55  37.181  23.581
 595.05  37.117  23.612
 595.55  37.181  23.581
 596.05  37.181  23.581
 596.55  37.181  23.581
 597.05  37.181  23.550
 597.55  37.245  23.581
 598.05  37.181  23.581
 598.55  37.245  23.581
 599.05  37.181  23.581
 599.55  37.245  23.581
 600.05  37.373  23.581
 600.55  37.245  23.612
 601.05  37.181  23.550
 601.55  37.245  23.581
 602.05  37.181  23.612
 602.55  37.181  23.581
 603.05  37.245  23.581
 603.55  37.181  23.550
 604.05  37.117  23.612
 604.55  37.245  23.581
 605.05  37.245  23.581
 605.55  37.245  23.581
 606.05  37.245  23.581
 606.55  37.245  23.581
 607.05  37.309  23.581
 607.55  37.245  23.581
 608.05  37.181  23.550
 608.55  37.245  23.581
 609.05  37.245  23.581
 609.55  37.181  23.612
 610.05  37.245  23.581
 610.55  37.309  23.581
 611.05  37.245  23.581
 611.55  37.245  23.581
 612.05  37.309  23.581
 612.55  37.309  23.612
 613.05  37.181  23.674
 613.55  37.309  23.550
 614.05  37.309  23.581
 614.55  37.309  23.550
 615.05  37.309  23.612
 615.55  37.245  23.612
 616.05  37.245  23.581
 616.55  37.309  23.612
 617.05  37.309  23.550
 617.55  37.437  23.550
 618.05  37.245  23.581
 618.55  37.373  23.581
 619.05  37.309  23.612
 619.55  37.309  23.581
 620.05  37.309  23.581
 620.55  37.309  23.612
 621.05  37.373  23.550
 621.55  37.309  23.612
 622.05  37.309  23.674
 622.55  37.245  23.550
 623.05  37.309  23.581
 623.55  37.309  23.612
 624.05  37.309  23.581
 624.56  37.309  23.581
 625.06  37.309  23.612
 625.56  37.437  23.550
 626.06  37.309  23.612
 626.56  37.373  23.581
 627.06  37.373  23.550
 627.56  37.373  23.643
 628.06  37.373  23.550
 628.56  37.373  23.581
 629.06  37.373  23.581
 629.56  37.437  23.581
 630.06  37.309  23.581
 630.56  37.373  23.581
 631.06  37.373  23.612
 631.56  37.309  23.581
 632.06  37.437  23.612
 632.56  37.437  23.643
 633.06  37.373  23.581
 633.56  37.373  23.581
 634.06  37.373  23.612
 634.56  37.309  23.612
 635.06  37.437  23.581
 635.56  37.309  23.581
 636.06  37.437  23.581
 636.56  37.309  23.581
 637.06  37.373  23.581
 637.56  37.373  23.581
 638.06  37.373  23.612
 638.56  37.373  23.612
 639.06  37.437  23.581
 639.56  37.437  23.612
 640.06  37.309  23.581
 640.56  37.373  23.581
 641.06  37.373  23.581
 641.56  37.501  23.612
 642.06  37.373  23.581
 642.56  37.373  23.581
 643.06  37.501  23.550
 643.56  37.437  23.581
 644.06  37.437  23.581
 644.56  37.437  23.581
 645.06  37.437  23.550
 645.56  37.437  23.612
 646.06  37.501  23.550
 646.56  37.501  23.581
 647.06  37.437  23.581
 647.56  37.501  23.581
 648.06  37.565  23.581
 648.56  37.437  23.581
 649.06  37.309  23.550
 649.56  37.501  23.643
 650.06  37.501  23.581
 650.56  37.501  23.612
 651.06  37.437  23.612
 651.56  37.437  23.581
 652.06  37.501  23.612
 652.56  37.437  23.581
 653.06  37.501  23.612
 653.56  37.501  23.643
 654.06  37.501  23.550
 654.56  37.437  23.581
 655.06  37.501  23.581
 655.56  37.437  23.581
 656.06  37.501  23.581
 656.56  37.501  23.612
 657.06  37.501  23.612
 657.56  37.437  23.612
 658.06  37.373  23.643
 658.56  37.501  23.520
 659.06  37.501  23.581
 659.56  37.501  23.581
 660.06  37.501  23.581
 660.56  37.565  23.581
 661.06  37.501  23.581
 661.56  37.629  23.612
 662.06  37.629  23.643
 662.56  37.501  23.550
 663.06  37.501  23.612
 663.56  37.565  23.612
 664.06  37.501  23.581
 664.56  37.565  23.581
 665.06  37.501  23.643
 665.56  37.565  23.581
 666.06  37.565  23.612
 666.56  37.501  23.581
 667.06  37.565  23.581
 667.56  37.501  23.612
 668.06  37.501  23.612
 668.56  37.565  23.612
 669.06  37.565  23.643
 669.56  37.629  23.612
 670.06  37.565  23.581
 670.56  37.565  23.581
 671.06  37.565  23.643
 671.56  37.565  23.550
 672.06  37.501  23.581
 672.56  37.629  23.612
 673.06  37.501  23.612
 673.56  37.565  23.643
 674.06  37.629  23.612
 674.56  37.629  23.612
 675.06  37.629  23.550
 675.56  37.565  23.643
 676.06  37.629  23.581
 676.56  37.565  23.612
 677.06  37.629  23.643
 677.56  37.693  23.643
 678.06  37.629  23.612
 678.56  37.693  23.581
 679.06  37.629  23.612
 679.56  37.565  23.643
 680.06  37.629  23.581
 680.56  37.629  23.612
 681.06  37.629  23.581
 681.56  37.565  23.612
 682.06  37.629  23.612
 682.56  37.629  23.612
 683.06  37.629  23.581
 683.56  37.629  23.612
 684.06  37.629  23.612
 684.56  37.757  23.612
 685.06  37.629  23.612
 685.56  37.629  23.643
 686.06  37.629  23.643
 686.56  37.629  23.612
 687.06  37.757  23.612
 687.56  37.629  23.581
 688.06  37.693  23.612
 688.56  37.693  23.550
 689.06  37.565  23.643
 689.56  37.693  23.581
 690.06  37.693  23.612
 690.56  37.693  23.581
 691.06  37.693  23.612
 691.56  37.693  23.643
 692.06  37.693  23.581
 692.56  37.693  23.612
 693.06  37.693  23.643
 693.56  37.693  23.612
 694.06  37.629  23.520
 694.56  37.693  23.643
 695.06  37.693  23.612
 695.56  37.693  23.643
 696.06  37.693  23.612
 696.56  37.693  23.581
 697.06  37.693  23.612
 697.56  37.757  23.612
 698.06  37.693  23.643
 698.56  37.693  23.581
 699.06  37.693  23.612
 699.56  37.757  23.612
 700.06  37.757  23.612
 700.56  37.629  23.581
 701.06  37.757  23.612
 701.56  37.693  23.612
 702.06  37.757  23.581
 702.56  37.693  23.612
 703.06  37.821  23.581
 703.56  37.821  23.643
 704.06  37.757  23.612
 704.56  37.757  23.612
 705.06  37.757  23.612
 705.56  37.693  23.612
 706.06  37.757  23.612
 706.56  37.757  23.612
 707.06  37.693  23.612
 707.56  37.693  23.643
 708.06  37.821  23.612
 708.56  37.757  23.612
 709.06  37.693  23.581
 709.56  37.757  23.612
 710.06  37.821  23.612
 710.56  37.885  23.612
 711.06  37.821  23.612
 711.56  37.757  23.643
 712.06  37.821  23.612
 712.56  37.821  23.643
 713.06  37.821  23.643
 713.56  37.693  23.612
 714.06  37.757  23.612
 714.56  37.885  23.612
 715.06  37.821  23.612
 715.56  37.821  23.581
 716.06  37.757  23.674
 716.56  37.821  23.612
 717.06  37.821  23.612
 717.56  37.757  23.612
 718.06  37.821  23.612
 718.56  37.885  23.581
 719.06  37.821  23.612
 719.56  37.757  23.612
 720.06  37.885  23.643
 720.56  37.821  23.612
 721.06  37.821  23.612
 721.56  37.885  23.643
 722.06  37.821  23.581
 722.56  37.821  23.612
 723.06  37.821  23.612
 723.56  37.821  23.643
 724.06  38.013  23.612
 724.56  37.885  23.612
 725.06  37.821  23.643
 725.56  37.821  23.643
 726.06  37.821  23.643
 726.57  37.821  23.612
 727.07  37.885  23.643
 727.57  37.885  23.612
 728.07  37.821  23.612
 728.57  37.885  23.612
 729.07  37.885  23.643
 729.57  37.885  23.612
 730.07  37.885  23.643
 730.57  37.821  23.581
 731.07  37.885  23.643
 731.57  37.885  23.612
 732.07  37.885  23.612
 732.57  37.821  23.612
 733.07  37.885  23.674
 733.57  37.885  23.612
 734.07  37.885  23.643
 734.57  37.821  23.643
 735.07  37.821  23.643
 735.57  37.885  23.581
 736.07  37.949  23.612
 736.57  37.885  23.612
 737.07  37.885  23.581
 737.57  37.885  23.612
 738.07  37.885  23.643
 738.57  37.885  23.674
 739.07  37.949  23.643
 739.57  37.949  23.612
 740.07  37.949  23.643
 740.57  37.949  23.674
 741.07  37.949  23.643
 741.57  38.077  23.643
 742.07  37.949  23.643
 742.57  37.949  23.643
 743.07  37.885  23.612
 743.57  37.949  23.612
 744.07  37.949  23.643
 744.57  37.949  23.612
 745.07  37.949  23.612
 745.57  37.949  23.612
 746.07  37.885  23.612
 746.57  38.013  23.612
 747.07  37.949  23.612
 747.57  37.949  23.643
 748.07  37.949  23.643
 748.57  37.949  23.643
 749.07  37.949  23.612
 749.57  37.885  23.643
 750.07  38.013  23.643
 750.57  37.949  23.612
 751.07  37.949  23.643
 751.57  37.949  23.643
 752.07  37.949  23.643
 752.57  37.885  23.674
 753.07  37.949  23.581
 753.57  37.949  23.612
 754.07  37.949  23.643
 754.57  37.949  23.643
 755.07  38.013  23.643
 755.57  37.949  23.643
 756.07  38.013  23.643
 756.57  38.013  23.674
 757.07  38.013  23.612
 757.57  38.013  23.674
 758.07  38.013  23.674
 758.57  38.013  23.643
 759.07  37.949  23.612
 759.57  38.013  23.643
 760.07  38.013  23.643
 760.57  38.013  23.643
 761.07  38.013  23.612
 761.57  38.013  23.643
 762.07  37.949  23.612
 762.57  38.013  23.643
 763.07  38.077  23.612
 763.57  38.013  23.643
 764.07  38.013  23.612
 764.57  38.013  23.612
 765.07  38.013  23.612
 765.57  38.077  23.643
 766.07  38.077  23.643
 766.57  38.013  23.643
 767.07  38.013  23.643
 767.57  38.013  23.612
 768.07  38.013  23.612
 768.57  38.077  23.643
 769.07  38.013  23.643
 769.57  37.949  23.612
 770.07  38.077  23.612
 770.57  38.077  23.643
 771.07  38.077  23.674
 771.57  38.013  23.643
 772.07  38.077  23.612
 772.57  38.013  23.643
 773.07  38.013  23.612
 773.57  38.077  23.643
 774.07  38.077  23.643
 774.57  38.141  23.643
 775.07  38.141  23.674
 775.57  38.141  23.674
 776.07  38.077  23.674
 776.57  38.077  23.612
 777.07  38.077  23.612
 777.57  38.141  23.643
 778.07  38.077  23.643
 778.57  38.077  23.643
 779.07  37.949  23.612
 779.57  38.141  23.674
 780.07  38.077  23.643
 780.57  38.141  23.643
 781.07  38.013  23.643
 781.57  38.077  23.643
 782.07  38.077  23.643
 782.57  38.077  23.643
 783.07  38.141  23.643
 783.57  38.205  23.674
 784.07  38.141  23.674
 784.57  38.205  23.643
 785.07  38.141  23.643
 785.57  38.077  23.674
 786.07  38.141  23.612
 786.57  38.141  23.643
 787.07  38.077  23.612
 787.57  38.013  23.643
 788.07  38.077  23.674
 788.57  38.141  23.643
 789.07  38.205  23.643
 789.57  38.141  23.674
 790.07  38.141  23.643
 790.57  38.077  23.643
 791.07  38.141  23.643
 791.57  38.077  23.643
 792.07  38.141  23.643
 792.57  38.141  23.643
 793.07  38.141  23.674
 793.57  38.141  23.643
 794.07  38.141  23.643
 794.57  38.141  23.612
 795.07  38.141  23.581
 795.57  38.141  23.643
 796.07  38.077  23.612
 796.57  38.205  23.643
 797.07  38.141  23.643
 797.57  38.205  23.612
 798.07  38.141  23.674
 798.57  38.141  23.643
 799.07  38.205  23.674
 799.57  38.205  23.643
 800.07  38.077  23.643
 800.57  38.205  23.674
 801.07  38.333  23.674
 801.57  38.141  23.643
 802.07  38.269  23.674
 802.57  38.205  23.612
 803.07  38.205  23.643
 803.57  38.205  23.643
 804.07  38.205  23.643
 804.57  38.205  23.674
 805.07  38.141  23.674
 805.57  38.205  23.643
 806.07  38.205  23.643
 806.57  38.205  23.674
 807.07  38.205  23.643
 807.57  38.141  23.643
 808.07  38.141  23.643
 808.57  38.077  23.674
 809.07  38.141  23.643
 809.57  38.205  23.674
 810.07  38.205  23.705
 810.57  38.205  23.674
 811.07  38.269  23.643
 811.57  38.141  23.643
 812.07  38.205  23.612
 812.57  38.269  23.612
 813.07  38.269  23.612
 813.57  38.205  23.674
 814.07  38.269  23.643
 814.57  38.269  23.643
 815.07  38.397  23.612
 815.57  38.333  23.643
 816.07  38.333  23.643
 816.57  38.269  23.643
 817.07  38.205  23.674
 817.57  38.269  23.674
 818.07  38.269  23.674
 818.57  38.205  23.674
 819.07  38.205  23.643
 819.57  38.205  23.643
 820.07  38.269  23.643
 820.57  38.269  23.674
 821.07  38.269  23.643
 821.57  38.269  23.643
 822.07  38.269  23.643
 822.57  38.205  23.643
 823.07  38.141  23.612
 823.57  38.269  23.643
 824.07  38.205  23.643
 824.57  38.269  23.674
 825.07  38.269  23.643
 825.57  38.269  23.674
 826.07  38.141  23.643
 826.57  38.333  23.643
 827.07  38.269  23.581
 827.57  38.461  23.643
 828.07  38.269  23.674
 828.57  38.269  23.674
 829.07  38.269  23.643
 829.57  38.269  23.643
 830.07  38.269  23.643
 830.57  38.205  23.643
 831.07  38.269  23.674
 831.57  38.333  23.674
 832.07  38.269  23.674
 832.57  38.333  23.643
 833.07  38.269  23.643
 833.57  38.333  23.643
 834.07  38.333  23.643
 834.57  38.269  23.643
 835.07  38.269  23.674
 835.57  38.333  23.643
 836.07  38.269  23.643
 836.57  38.269  23.643
 837.07  38.205  23.643
 837.57  38.333  23.674
 838.07  38.333  23.674
 838.57  37.757  23.705
 839.07  38.269  23.643
 839.58  38.397  23.643
 840.08  38.333  23.643
 840.58  38.333  23.705
 841.08  38.333  23.674
 841.58  38.333  23.643
 842.08  38.269  23.643
 842.58  38.333  23.674
 843.08  38.333  23.674
 843.58  38.205  23.674
 844.08  38.397  23.643
 844.58  38.333  23.674
 845.08  38.333  23.674
 845.58  38.397  23.674
 846.08  38.397  23.674
 846.58  38.269  23.674
 847.08  38.333  23.674
 847.58  38.333  23.643
 848.08  38.333  23.643
 848.58  38.397  23.674
 849.08  38.333  23.674
 849.58  38.397  23.643
 850.08  38.397  23.643
 850.58  38.333  23.705
 851.08  38.397  23.674
 851.58  38.333  23.643
 852.08  38.397  23.674
 852.58  38.461  23.643
 853.08  38.397  23.643
 853.58  38.461  23.674
 854.08  38.397  23.674
 854.58  38.397  23.674
 855.08  38.397  23.674
 855.58  38.333  23.643
 856.08  38.333  23.643
 856.58  38.333  23.643
 857.08  38.397  23.674
 857.58  38.333  23.705
 858.08  38.397  23.705
 858.58  38.333  23.674
 859.08  38.461  23.674
 859.58  38.397  23.674
 860.08  38.397  23.674
 860.58  38.397  23.643
 861.08  38.461  23.674
 861.58  38.397  23.674
 862.08  38.397  23.705
 862.58  38.461  23.674
 863.08  38.397  23.643
 863.58  38.397  23.674
 864.08  38.397  23.674
 864.58  38.461  23.705
 865.08  38.461  23.674
 865.58  38.397  23.674
 866.08  38.525  23.674
 866.58  38.461  23.674
 867.08  38.461  23.674
 867.58  38.397  23.674
 868.08  38.461  23.674
 868.58  38.461  23.674
 869.08  38.397  23.643
 869.58  38.461  23.674
 870.08  38.461  23.674
 870.58  38.461  23.674
 871.08  38.397  23.674
 871.58  38.461  23.674
 872.08  38.461  23.705
 872.58  38.461  23.643
 873.08  38.461  23.705
 873.58  38.461  23.674
 874.08  38.461  23.674
 874.58  38.461  23.674
 875.08  38.461  23.674
 875.58  38.397  23.705
 876.08  38.397  23.674
 876.58  38.589  23.674
 877.08  38.589  23.674
 877.58  38.525  23.643
 878.08  38.461  23.674
 878.58  38.397  23.674
 879.08  38.589  23.674
 879.58  38.589  23.643
 880.08  38.461  23.674
 880.58  38.461  23.674
 881.08  38.397  23.674
 881.58  38.461  23.674
 882.08  38.461  23.705
 882.58  38.525  23.674
 883.08  38.461  23.674
 883.58  38.461  23.674
 884.08  38.461  23.705
 884.58  38.525  23.674
 885.08  38.589  23.674
 885.58  38.461  23.705
 886.08  38.589  23.705
 886.58  38.525  23.705
 887.08  38.461  23.674
 887.58  38.461  23.705
 888.08  38.525  23.705
 888.58  38.525  23.674
 889.08  38.525  23.674
 889.58  38.589  23.643
 890.08  38.589  23.705
 890.58  38.461  23.735
 891.08  38.525  23.735
 891.58  38.589  23.674
 892.08  38.525  23.705
 892.58  38.525  23.643
 893.08  38.589  23.674
 893.58  38.525  23.735
 894.08  38.525  23.705
 894.58  38.525  23.674
 895.08  38.589  23.705
 895.58  38.589  23.674
 896.08  38.525  23.705
 896.58  38.525  23.674
 897.08  38.525  23.705
 897.58  38.589  23.643
 898.08  38.525  23.674
 898.58  38.461  23.674
 899.08  38.589  23.643
 899.58  38.653  23.705
 900.08  38.589  23.643
 900.58  38.589  23.705
 901.08  38.589  23.674
 901.58  38.525  23.674
 902.08  38.525  23.674
 902.58  38.461  23.674
 903.08  38.525  23.705
 903.58  38.461  23.674
 904.08  38.525  23.705
 904.58  38.589  23.674
 905.08  38.589  23.705
 905.58  38.589  23.705
 906.08  38.525  23.705
 906.58  38.589  23.643
 907.08  38.589  23.674
 907.58  38.653  23.643
 908.08  38.589  23.643
 908.58  38.589  23.674
 909.08  38.525  23.705
 909.58  38.589  23.705
 910.08  38.525  23.643
 910.58  38.589  23.705
 911.08  38.525  23.674
 911.58  38.525  23.674
 912.08  38.589  23.643
 912.58  38.589  23.674
 913.08  38.589  23.643
 913.58  38.589  23.705
 914.08  38.589  23.674
 914.58  38.589  23.674
 915.08  38.589  23.674
 915.58  38.589  23.674
 916.08  38.589  23.705
 916.58  38.589  23.735
 917.08  38.589  23.674
 917.58  38.589  23.705
 918.08  38.525  23.643
 918.58  38.653  23.674
 919.08  38.525  23.674
 919.58  38.589  23.674
 920.08  38.461  23.674
 920.58  38.589  23.674
 921.08  38.589  23.674
 921.58  38.589  23.674
 922.08  38.589  23.674
 922.58  38.589  23.674
 923.08  38.653  23.674
 923.58  38.589  23.705
 924.08  38.589  23.705
 924.58  38.589  23.674
 925.08  38.525  23.674
 925.58  38.653  23.674
 926.08  38.653  23.674
 926.58  38.653  23.674
 927.08  38.653  23.674
 927.58  38.589  23.705
 928.08  38.653  23.705
 928.58  38.653  23.674
 929.08  38.653  23.705
 929.58  38.653  23.705
 930.08  38.589  23.674
 930.58  38.653  23.705
 931.08  38.653  23.674
 931.58  38.653  23.705
 932.08  38.653  23.705
 932.58  38.717  23.705
 933.08  38.653  23.674
 933.58  38.653  23.705
 934.08  38.653  23.705
 934.58  38.717  23.674
 935.08  38.653  23.705
 935.58  38.717  23.674
 936.08  38.653  23.674
 936.58  38.653  23.705
 937.08  38.717  23.705
 937.58  38.717  23.674
 938.08  38.781  23.674
 938.58  38.653  23.674
 939.08  38.653  23.705
 939.58  38.653  23.705
 940.08  38.589  23.705
 940.58  38.717  23.735
 941.08  38.653  23.705
 941.58  38.653  23.674
 942.08  38.653  23.705
 942.58  38.653  23.705
 943.08  38.717  23.674
 943.58  38.717  23.705
 944.08  38.781  23.674
 944.58  38.781  23.705
 945.08  38.717  23.705
 945.58  38.653  23.705
 946.08  38.717  23.705
 946.58  38.653  23.705
 947.08  38.717  23.674
 947.58  38.653  23.735
 948.08  38.781  23.735
 948.58  38.653  23.705
 949.08  38.653  23.735
 949.58  38.717  23.705
 950.08  38.781  23.674
 950.58  38.781  23.705
 951.08  38.781  23.705
 951.58  38.717  23.705
 952.08  38.717  23.705
 952.58  38.717  23.705
 953.09  38.781  23.705
 953.59  38.717  23.705
 954.09  38.781  23.735
 954.59  38.717  23.705
 955.09  38.717  23.674
 955.59  38.717  23.735
 956.09  38.717  23.735
 956.59  38.653  23.735
 957.09  38.717  23.674
 957.59  38.781  23.674
 958.09  38.781  23.705
 958.59  38.781  23.705
 959.09  38.717  23.674
 959.59  38.717  23.705
 960.09  38.653  23.705
 960.59  38.717  23.705
 961.09  38.781  23.705
 961.59  38.781  23.705
 962.09  38.781  23.705
 962.59  38.717  23.705
 963.09  38.717  23.674
 963.59  38.717  23.705
 964.09  38.781  23.735
 964.59  38.717  23.735
 965.09  38.781  23.705
 965.59  38.781  23.705
 966.09  38.653  23.674
 966.59  38.717  23.705
 967.09  38.781  23.705
 967.59  38.717  23.705
 968.09  38.845  23.674
 968.59  38.845  23.705
 969.09  38.845  23.674
 969.59  38.781  23.735
 970.09  38.781  23.705
 970.59  38.781  23.705
 971.09  38.781  23.705
 971.59  38.781  23.705
 972.09  38.781  23.735
 972.59  38.653  23.735
 973.09  38.781  23.735
 973.59  38.781  23.705
 974.09  38.845  23.735
 974.59  38.845  23.705
 975.09  38.781  23.674
 975.59  38.781  23.705
 976.09  38.781  23.674
 976.59  38.845  23.674
 977.09  38.781  23.735
 977.59  38.781  23.705
 978.09  38.845  23.705
 978.59  38.781  23.735
 979.09  38.717  23.705
 979.59  38.781  23.705
 980.09  38.781  23.705
 980.59  38.781  23.674
 981.09  38.845  23.705
 981.59  38.781  23.705
 982.09  38.781  23.766
 982.59  38.845  23.705
 983.09  38.781  23.705
 983.59  38.845  23.705
 984.09  38.845  23.766
 984.59  38.845  23.705
 985.09  38.781  23.705
 985.59  38.781  23.705
 986.09  38.845  23.705
 986.59  38.781  23.705
 987.09  38.845  23.705
 987.59  38.845  23.705
 988.09  38.781  23.705
 988.59  38.781  23.674
 989.09  38.845  23.674
 989.59  38.845  23.705
 990.09  38.909  23.705
 990.59  38.845  23.705
 991.09  38.845  23.705
 991.59  38.845  23.735
 992.09  38.845  23.705
 992.59  38.845  23.705
 993.09  38.845  23.735
 993.59  38.845  23.705
 994.09  38.909  23.735
 994.59  38.909  23.735
 995.09  38.845  23.735
 995.59  38.845  23.705
 996.09  38.845  23.705
 996.59  38.909  23.705
 997.09  38.845  23.735
 997.59  38.909  23.705
 998.09  38.973  23.735
 998.59  38.845  23.705
 999.09  38.909  23.735
 999.59  38.909  23.735
1000.09  38.845  23.735
1000.59  38.845  23.705
1001.09  38.845  23.674
1001.59  38.845  23.705
1002.09  38.909  23.735
1002.59  38.909  23.705
1003.09  38.845  23.766
1003.59  38.909  23.735
1004.09  38.909  23.735
1004.59  38.845  23.705
1005.09  38.909  23.735
1005.59  38.845  23.735
1006.09  38.909  23.705
1006.59  38.909  23.705
1007.09  38.909  23.735
1007.59  38.845  23.735
1008.09  38.973  23.735
1008.59  38.909  23.735
1009.09  38.845  23.735
1009.59  38.909  23.705
1010.09  38.909  23.735
1010.59  38.909  23.735
1011.09  38.845  23.674
1011.59  38.845  23.705
1012.09  38.909  23.705
1012.59  38.845  23.735
1013.09  38.909  23.705
1013.59  38.909  23.705
1014.09  38.909  23.735
1014.59  38.909  23.674
1015.09  38.909  23.735
1015.59  38.909  23.705
1016.09  38.909  23.705
1016.59  38.845  23.735
1017.09  38.845  23.766
1017.59  38.973  23.705
1018.09  38.845  23.735
1018.59  38.909  23.674
1019.09  38.909  23.674
1019.59  38.909  23.705
1020.09  38.909  23.735
1020.59  38.909  23.797
1021.09  38.909  23.705
1021.59  38.909  23.705
1022.09  38.909  23.735
1022.59  38.973  23.766
1023.09  38.973  23.705
1023.59  38.909  23.705
1024.09  38.909  23.705
1024.59  38.909  23.705
1025.09  38.973  23.705
1025.59  38.845  23.705
1026.09  38.973  23.705
1026.59  38.973  23.735
1027.09  38.973  23.735
1027.59  38.973  23.705
1028.09  38.973  23.735
1028.59  38.973  23.735
1029.09  38.973  23.705
1029.59  38.973  23.735
1030.09  38.973  23.705
1030.59  38.909  23.705
1031.09  38.973  23.766
1031.59  38.973  23.735
1032.09  38.973  23.735
1032.59  38.909  23.705
1033.09  38.909  23.735
1033.59  38.973  23.735
1034.09  39.037  23.735
1034.59  39.037  23.735
1035.09  38.973  23.674
1035.59  39.037  23.766
1036.09  38.973  23.705
1036.59  38.973  23.735
1037.09  38.909  23.735
1037.59  38.909  23.735
1038.09  38.973  23.735
1038.59  39.037  23.735
1039.09  38.845  23.705
1039.59  38.973  23.735
1040.09  39.037  23.735
1040.59  38.909  23.735
1041.09  38.973  23.735
1041.59  38.973  23.735
1042.09  38.909  23.766
1042.59  39.037  23.735
1043.09  38.973  23.735
1043.59  39.037  23.705
1044.09  38.973  23.735
1044.59  38.973  23.735
1045.09  39.037  23.735
1045.59  38.973  23.735
1046.09  39.037  23.735
1046.59  39.037  23.828
1047.09  38.973  23.735
1047.59  39.037  23.735
1048.09  38.973  23.735
1048.59  39.101  23.766
1049.09  39.037  23.735
1049.59  39.037  23.705
1050.09  39.037  23.735
1050.59  38.973  23.735
1051.09  39.037  23.735
1051.59  38.973  23.735
1052.09  39.037  23.735
1052.59  39.037  23.735
1053.09  39.037  23.766
1053.59  39.037  23.766
1054.09  38.973  23.735
1054.59  39.037  23.735
1055.09  38.973  23.735
1055.59  39.037  23.735
1056.09  39.037  23.735
1056.59  39.037  23.735
1057.09  39.037  23.735
1057.59  39.037  23.735
1058.09  38.909  23.674
1058.59  39.037  23.735
1059.09  39.037  23.674
1059.59  39.101  23.766
1060.09  38.973  23.735
1060.59  39.037  23.766
1061.09  39.101  23.735
1061.59  39.037  23.705
1062.09  39.037  23.735
1062.59  38.973  23.735
1063.09  39.037  23.735
1063.59  39.037  23.735
1064.09  39.101  23.766
1064.59  39.037  23.705
1065.09  39.037  23.735
1065.59  39.037  23.735
1066.10  39.101  23.735
1066.60  39.037  23.735
1067.10  39.037  23.766
1067.60  39.101  23.766
1068.10  39.037  23.735
1068.60  39.101  23.735
1069.10  39.037  23.735
1069.60  39.037  23.735
1070.10  39.165  23.735
1070.60  39.101  23.735
1071.10  39.037  23.735
1071.60  39.101  23.735
1072.10  39.101  23.735
1072.60  39.037  23.735
1073.10  39.101  23.766
1073.60  39.037  23.735
1074.10  38.973  23.735
1074.60  39.101  23.797
1075.10  39.101  23.735
1075.60  39.101  23.735
1076.10  39.101  23.766
1076.60  39.037  23.705
1077.10  39.101  23.735
1077.60  39.101  23.735
1078.10  39.037  23.735
1078.60  39.037  23.735
1079.10  39.165  23.766
1079.60  39.101  23.735
1080.10  39.101  23.766
1080.60  39.101  23.735
1081.10  39.101  23.735
1081.60  39.101  23.735
1082.10  39.165  23.797
1082.60  39.101  23.735
1083.10  39.101  23.735
1083.60  39.165  23.735
1084.10  39.101  23.735
1084.60  39.037  23.735
1085.10  39.101  23.766
1085.60  39.165  23.735
1086.10  39.165  23.766
1086.60  39.037  23.766
1087.10  39.165  23.735
1087.60  39.101  23.735
1088.10  39.165  23.797
1088.60  39.101  23.735
1089.10  39.101  23.797
1089.60  39.165  23.735
1090.10  39.101  23.766
1090.60  39.165  23.735
1091.10  39.165  23.766
1091.60  39.165  23.735
1092.10  39.165  23.705
1092.60  39.165  23.766
1093.10  39.101  23.766
1093.60  39.165  23.735
1094.10  39.165  23.766
1094.60  39.165  23.705
1095.10  39.101  23.766
1095.60  39.101  23.735
1096.10  39.165  23.766
1096.60  39.101  23.766
1097.10  39.165  23.766
1097.60  39.165  23.766
1098.10  39.229  23.797
1098.60  39.165  23.735
1099.10  39.165  23.735
1099.60  39.229  23.766
1100.10  39.229  23.735
1100.60  39.229  23.766
1101.10  39.165  23.766
1101.60  39.165  23.735
1102.10  39.165  23.766
1102.60  39.101  23.735
1103.10  39.165  23.766
1103.60  39.165  23.735
1104.10  39.165  23.735
1104.60  39.229  23.766
1105.10  39.229  23.859
1105.60  39.165  23.766
1106.10  39.037  23.735
1106.60  39.165  23.766
1107.10  39.165  23.766
1107.60  39.165  23.766
1108.10  39.229  23.766
1108.60  39.229  23.766
1109.10  39.165  23.766
1109.60  39.229  23.797
1110.10  39.165  23.766
1110.60  39.229  23.766
1111.10  39.229  23.766
1111.60  39.165  23.735
1112.10  39.229  23.766
1112.60  39.101  23.797
1113.10  39.165  23.766
1113.60  39.229  23.766
1114.10  39.229  23.766
1114.60  39.229  23.766
1115.10  39.101  23.766
1115.60  39.229  23.766
1116.10  39.229  23.766
1116.60  39.229  23.735
1117.10  39.229  23.766
1117.60  39.165  23.735
1118.10  39.229  23.735
1118.60  39.229  23.766
1119.10  39.229  23.797
1119.60  39.165  23.766
1120.10  39.165  23.766
1120.60  39.165  23.766
1121.10  39.293  23.766
1121.60  39.165  23.797
1122.10  39.229  23.766
1122.60  39.229  23.766
1123.10  39.229  23.735
1123.60  39.229  23.735
1124.10  39.229  23.766
1124.60  39.229  23.766
1125.10  39.229  23.766
1125.60  39.165  23.735
1126.10  39.229  23.766
1126.60  39.165  23.735
1127.10  39.229  23.766
1127.60  39.165  23.735
1128.10  39.165  23.735
1128.60  39.165  23.705
1129.10  39.229  23.766
1129.60  39.229  23.797
1130.10  39.229  23.766
1130.60  39.165  23.766
1131.10  39.229  23.797
1131.60  39.229  23.766
1132.10  39.165  23.797
1132.60  39.229  23.766
1133.10  39.293  23.766
1133.60  39.229  23.735
1134.10  39.229  23.735
1134.60  39.165  23.766
1135.10  39.165  23.766
1135.60  39.165  23.766
1136.10  39.229  23.735
1136.60  39.229  23.735
1137.10  39.165  23.766
1137.60  39.229  23.735
1138.10  39.293  23.766
1138.60  39.229  23.766
1139.10  39.293  23.766
1139.60  39.229  23.735
1140.10  39.229  23.766
1140.60  39.293  23.766
1141.10  39.229  23.735
1141.60  39.293  23.797
1142.10  39.229  23.766
1142.60  39.229  23.766
1143.10  39.229  23.797
1143.60  39.357  23.797
1144.10  39.293  23.766
1144.60  39.293  23.766
1145.10  39.293  23.797
1145.60  39.293  23.797
1146.10  39.293  23.828
1146.60  39.229  23.797
1147.10  39.165  23.766
1147.60  39.293  23.766
1148.10  39.229  23.766
1148.60  39.293  23.797
1149.10  39.229  23.735
1149.60  39.229  23.766
1150.10  39.293  23.735
1150.60  39.293  23.766
1151.10  39.293  23.797
1151.60  39.293  23.766
1152.10  39.293  23.766
1152.60  39.293  23.766
1153.10  39.293  23.766
1153.60  39.293  23.797
1154.10  39.293  23.766
1154.60  39.293  23.766
1155.10  39.293  23.735
1155.60  39.293  23.766
1156.10  39.293  23.766
1156.60  39.229  23.766
1157.10  39.293  23.766
1157.60  39.293  23.797
1158.10  39.293  23.828
1158.60  39.293  23.766
1159.10  39.357  23.766
1159.60  39.293  23.797
1160.10  39.293  23.766
1160.60  39.421  23.797
1161.10  39.293  23.797
1161.60  39.229  23.766
1162.10  39.357  23.735
1162.60  39.293  23.766
1163.10  39.229  23.766
1163.60  39.293  23.766
1164.10  39.357  23.766
1164.60  39.357  23.766
1165.10  39.293  23.797
1165.60  39.357  23.797
1166.10  39.293  23.828
1166.60  39.357  23.797
1167.10  39.357  23.766
1167.60  39.293  23.828
1168.10  39.293  23.797
1168.60  39.357  23.797
1169.10  39.293  23.828
1169.60  39.357  23.766
1170.10  39.293  23.766
1170.60  39.357  23.797
1171.10  39.357  23.766
1171.60  39.293  23.797
1172.10  39.293  23.766
1172.60  39.357  23.766
1173.10  39.357  23.766
1173.60  39.357  23.797
1174.10  39.357  23.797
1174.60  39.293  23.828
1175.10  39.357  23.797
1175.60  39.357  23.766
1176.10  39.293  23.797
1176.60  39.421  23.766
1177.10  39.357  23.766
1177.60  39.357  23.797
1178.10  39.357  23.797
1178.60  39.293  23.797
1179.11  39.421  23.797
1179.61  39.357  23.797
1180.11  39.357  23.766
1180.61  39.293  23.797
1181.11  39.421  23.766
1181.61  39.421  23.766
1182.11  39.485  23.766
1182.61  39.421  23.797
1183.11  39.357  23.797
1183.61  39.357  23.766
1184.11  39.357  23.766
1184.61  39.357  23.797
1185.11  39.357  23.766
1185.61  39.357  23.766
1186.11  39.357  23.797
1186.61  39.357  23.797
1187.11  39.293  23.797
1187.61  39.357  23.828
1188.11  39.293  23.797
1188.61  39.357  23.766
1189.11  39.293  23.797
1189.61  39.357  23.797
1190.11  39.357  23.766
1190.61  39.357  23.766
1191.11  39.293  23.797
1191.61  39.421  23.766
1192.11  39.485  23.766
1192.61  39.357  23.797
1193.11  39.357  23.766
1193.61  39.357  23.797
1194.11  39.421  23.766
1194.61  39.357  23.766
1195.11  39.421  23.797
1195.61  39.357  23.766
1196.11  39.421  23.766
1196.61  39.421  23.766
1197.11  39.421  23.797
1197.61  39.421  23.766
1198.11  39.357  23.797
1198.61  39.421  23.797
1199.11  39.357  23.766
1199.61  39.421  23.797
1200.11  39.357  23.797
1200.61  39.357  23.797
1201.11  39.421  23.797
1201.61  39.421  23.797
1202.11  39.421  23.766
1202.61  39.485  23.797
1203.11  39.421  23.797
1203.61  39.421  23.766
1204.11  39.485  23.797
1204.61  39.421  23.797
1205.11  39.421  23.766
1205.61  39.421  23.766
1206.11  39.421  23.828
1206.61  39.549  23.797
1207.11  39.421  23.797
1207.61  39.421  23.797
1208.11  39.357  23.797
1208.61  39.421  23.766
1209.11  39.421  23.828
1209.61  39.485  23.797
1210.11  39.357  23.797
1210.61  39.421  23.797
1211.11  39.421  23.797
1211.61  39.421  23.797
1212.11  39.421  23.797
1212.61  39.421  23.797
1213.11  39.357  23.828
1213.61  39.421  23.766
1214.11  39.421  23.766
1214.61  39.421  23.797
1215.11  39.421  23.797
1215.61  39.421  23.797
1216.11  39.485  23.797
1216.61  39.421  23.797
1217.11  39.421  23.797
1217.61  39.421  23.828
1218.11  39.421  23.797
1218.61  39.485  23.797
1219.11  39.421  23.797
1219.61  39.485  23.797
1220.11  39.421  23.797
1220.61  39.421  23.797
1221.11  39.421  23.797
1221.61  39.485  23.828
1222.11  39.485  23.797
1222.61  39.485  23.797
1223.11  39.421  23.828
1223.61  39.485  23.797
1224.11  39.485  23.766
1224.61  39.421  23.828
1225.11  39.421  23.797
1225.61  39.421  23.797
1226.11  39.421  23.828
1226.61  39.421  23.797
1227.11  39.421  23.797
1227.61  39.485  23.828
1228.11  39.549  23.766
1228.61  39.485  23.797
1229.11  39.485  23.828
1229.61  39.549  23.766
1230.11  39.485  23.797
1230.61  39.485  23.766
1231.11  39.485  23.797
1231.61  39.421  23.828
1232.11  39.485  23.797
1232.61  39.485  23.828
1233.11  39.421  23.797
1233.61  39.485  23.797
1234.11  39.485  23.766
1234.61  39.549  23.797
1235.11  39.421  23.797
1235.61  39.485  23.797
1236.11  39.485  23.797
1236.61  39.485  23.797
1237.11  39.549  23.766
1237.61  39.485  23.828
1238.11  39.549  23.828
1238.61  39.485  23.797
1239.11  39.485  23.766
1239.61  39.293  23.797
1240.11  39.485  23.766
1240.61  39.485  23.797
1241.11  39.485  23.797
1241.61  39.485  23.766
1242.11  39.421  23.797
1242.61  39.485  23.797
1243.11  39.485  23.828
1243.61  39.613  23.766
1244.11  39.485  23.828
1244.61  39.421  23.828
1245.11  39.549  23.797
1245.61  39.485  23.828
1246.11  39.549  23.797
1246.61  39.549  23.797
1247.11  39.549  23.797
1247.61  39.549  23.766
1248.11  39.549  23.797
1248.61  39.549  23.797
1249.11  39.485  23.828
1249.61  39.613  23.797
1250.11  39.549  23.766
1250.61  39.485  23.797
1251.11  39.485  23.828
1251.61  39.485  23.828
1252.11  39.485  23.797
1252.61  39.613  23.797
1253.11  39.485  23.828
1253.61  39.485  23.828
1254.11  39.549  23.766
1254.61  39.549  23.797
1255.11  39.485  23.797
1255.61  39.549  23.797
1256.11  39.549  23.797
1256.61  39.549  23.828
1257.11  39.549  23.828
1257.61  39.485  23.766
1258.11  39.485  23.797
1258.61  39.485  23.828
1259.11  39.485  23.797
1259.61  39.549  23.797
1260.11  39.549  23.828
1260.61  39.613  23.828
1261.11  39.485  23.797
1261.61  39.549  23.797
1262.11  39.549  23.797
1262.61  39.421  23.766
1263.11  39.549  23.828
1263.61  39.549  23.797
1264.11  39.485  23.828
1264.61  39.549  23.797
1265.11  39.549  23.828
1265.61  39.549  23.766
1266.11  39.549  23.797
1266.61  39.549  23.828
1267.11  39.549  23.828
1267.61  39.549  23.828
1268.11  39.549  23.828
1268.61  39.549  23.797
1269.11  39.549  23.797
1269.61  39.549  23.797
1270.11  39.549  23.797
1270.61  39.485  23.828
1271.11  39.485  23.797
1271.61  39.357  23.797
1272.11  39.549  23.828
1272.61  39.549  23.797
1273.11  39.549  23.828
1273.61  39.549  23.828
1274.11  39.613  23.828
1274.61  39.613  23.797
1275.11  39.549  23.797
1275.61  39.421  23.828
1276.11  39.549  23.859
1276.61  39.613  23.797
1277.11  39.549  23.797
1277.61  39.549  23.828
1278.11  39.549  23.828
1278.61  39.549  23.828
1279.11  39.549  23.797
1279.61  39.549  23.828
1280.11  39.549  23.828
1280.61  39.613  23.828
1281.11  39.549  23.859
1281.61  39.613  23.797
1282.11  39.485  23.828
1282.61  39.485  23.828
1283.11  39.549  23.828
1283.61  39.485  23.797
1284.11  39.549  23.828
1284.61  39.549  23.797
1285.11  39.549  23.797
1285.61  39.549  23.859
1286.11  39.549  23.797
1286.61  39.549  23.828
1287.11  39.549  23.797
1287.61  39.613  23.797
1288.11  39.549  23.828
1288.61  39.613  23.828
1289.11  39.613  23.889
1289.61  39.613  23.797
1290.11  39.613  23.828
1290.61  39.613  23.828
1291.11  39.549  23.797
1291.61  39.613  23.797
1292.11  39.613  23.828
1292.62  39.613  23.828
1293.12  39.613  23.889
1293.62  39.677  23.859
1294.12  39.613  23.797
1294.62  39.613  23.828
1295.12  39.613  23.859
1295.62  39.613  23.828
1296.12  39.613  23.828
1296.62  39.549  23.859
1297.12  39.549  23.828
1297.62  39.613  23.828
1298.12  39.613  23.828
1298.62  39.613  23.828
1299.12  39.549  23.859
1299.62  39.549  23.828
1300.12  39.613  23.828
1300.62  39.613  23.828
1301.12  39.613  23.828
1301.62  39.613  23.828
1302.12  39.549  23.797
1302.62  39.613  23.859
1303.12  39.613  23.828
1303.62  39.613  23.797
1304.12  39.613  23.766
1304.62  39.549  23.797
1305.12  39.613  23.828
1305.62  39.677  23.828
1306.12  39.549  23.859
1306.62  39.677  23.828
1307.12  39.613  23.828
1307.62  39.549  23.859
1308.12  39.613  23.828
1308.62  39.549  23.828
1309.12  39.741  23.859
1309.62  39.677  23.828
1310.12  39.677  23.828
1310.62  39.677  23.797
1311.12  39.677  23.828
1311.62  39.677  23.828
1312.12  39.613  23.828
1312.62  39.613  23.828
1313.12  39.613  23.828
1313.62  39.549  23.828
1314.12  39.741  23.828
1314.62  39.613  23.859
1315.12  39.677  23.859
1315.62  39.677  23.828
1316.12  39.677  23.828
1316.62  39.613  23.859
1317.12  39.677  23.828
1317.62  39.613  23.797
1318.12  39.805  23.828
1318.62  39.613  23.797
1319.12  39.677  23.859
1319.62  39.613  23.828
1320.12  39.677  23.828
1320.62  39.677  23.828
1321.12  39.677  23.828
1321.62  39.613  23.828
1322.12  39.677  23.828
1322.62  39.613  23.828
1323.12  39.677  23.828
1323.62  39.677  23.828
1324.12  39.613  23.828
1324.62  39.741  23.828
1325.12  39.613  23.828
1325.62  39.613  23.828
1326.12  39.677  23.859
1326.62  39.549  23.828
1327.12  39.549  23.828
1327.62  39.805  23.828
1328.12  39.677  23.828
1328.62  39.677  23.828
1329.12  39.677  23.828
1329.62  39.613  23.797
1330.12  39.677  23.828
1330.62  39.677  23.859
1331.12  39.613  23.828
1331.62  39.549  23.828
1332.12  39.677  23.828
1332.62  39.677  23.828
1333.12  39.677  23.797
1333.62  39.677  23.828
1334.12  39.741  23.797
1334.62  39.677  23.828
1335.12  39.613  23.859
1335.62  39.741  23.828
1336.12  39.677  23.828
1336.62  39.677  23.859
1337.12  39.677  23.828
1337.62  39.677  23.828
1338.12  39.741  23.859
1338.62  39.741  23.828
1339.12  39.677  23.859
1339.62  39.741  23.859
1340.12  39.613  23.828
1340.62  39.741  23.828
1341.12  39.677  23.828
1341.62  39.677  23.828
1342.12  39.677  23.797
1342.62  39.677  23.828
1343.12  39.741  23.797
1343.62  39.677  23.828
1344.12  39.741  23.859
1344.62  39.741  23.828
1345.12  39.677  23.828
1345.62  39.677  23.859
1346.12  39.677  23.828
1346.62  39.677  23.797
1347.12  39.741  23.859
1347.62  39.741  23.828
1348.12  39.741  23.828
1348.62  39.677  23.828
1349.12  39.741  23.828
1349.62  39.677  23.828
1350.12  39.677  23.828
1350.62  39.677  23.828
1351.12  39.741  23.859
1351.62  39.741  23.859
1352.12  39.741  23.828
1352.62  39.677  23.859
1353.12  39.613  23.859
1353.62  39.677  23.889
1354.12  39.741  23.859
1354.62  39.741  23.828
1355.12  39.741  23.828
1355.62  39.805  23.859
1356.12  39.677  23.828
1356.62  39.741  23.859
1357.12  39.741  23.797
1357.62  39.741  23.828
1358.12  39.741  23.828
1358.62  39.805  23.828
1359.12  39.805  23.828
1359.62  39.741  23.859
1360.12  39.677  23.828
1360.62  39.741  23.828
1361.12  39.741  23.859
1361.62  39.741  23.828
1362.12  39.741  23.828
1362.62  39.741  23.859
1363.12  39.677  23.859
1363.62  39.805  23.797
1364.12  39.741  23.828
1364.62  39.741  23.828
1365.12  39.677  23.889
1365.62  39.805  23.828
1366.12  39.741  23.828
1366.62  39.741  23.797
1367.12  39.805  23.859
1367.62  39.741  23.859
1368.12  39.677  23.859
1368.62  39.741  23.859
1369.12  39.805  23.859
1369.62  39.741  23.859
1370.12  39.805  23.828
1370.62  39.741  23.859
1371.12  39.869  23.797
1371.62  39.741  23.828
1372.12  39.805  23.797
1372.62  39.741  23.859
1373.12  39.869  23.797
1373.62  39.741  23.797
1374.12  39.613  23.859
1374.62  39.741  23.797
1375.12  39.741  23.859
1375.62  39.741  23.828
1376.12  39.741  23.859
1376.62  39.805  23.859
1377.12  39.805  23.889
1377.62  39.741  23.859
1378.12  39.741  23.859
1378.62  39.741  23.859
1379.12  39.741  23.859
1379.62  39.677  23.828
1380.12  39.869  23.859
1380.62  39.741  23.859
1381.12  39.805  23.797
1381.62  39.741  23.920
1382.12  39.741  23.828
1382.62  39.741  23.859
1383.12  39.741  23.859
1383.62  39.805  23.859
1384.12  39.869  23.828
1384.62  39.805  23.859
1385.12  39.677  23.859
1385.62  39.805  23.859
1386.12  39.869  23.828
1386.62  39.805  23.828
1387.12  39.741  23.859
1387.62  39.805  23.828
1388.12  39.805  23.859
1388.62  39.741  23.859
1389.12  39.741  23.859
1389.62  39.805  23.859
1390.12  39.805  23.828
1390.62  39.805  23.828
1391.12  39.805  23.828
1391.62  39.805  23.797
1392.12  39.741  23.828
1392.62  39.933  23.828
1393.12  39.741  23.859
1393.62  39.677  23.859
1394.12  39.805  23.828
1394.62  39.741  23.828
1395.12  39.805  23.828
1395.62  39.805  23.859
1396.12  39.805  23.859
1396.62  39.805  23.859
1397.12  39.741  23.859
1397.62  39.869  23.859
1398.12  39.805  23.859
1398.62  39.741  23.828
1399.12  39.805  23.828
1399.62  39.805  23.797
1400.12  39.805  23.859
1400.62  39.805  23.828
1401.12  39.805  23.859
1401.62  39.805  23.859
1402.12  39.805  23.859
1402.62  39.805  23.859
1403.12  39.869  23.828
1403.62  39.805  23.859
1404.12  39.805  23.859
1404.62  39.805  23.859
1405.12  39.805  23.859
1405.62  39.869  23.859
1406.12  39.805  23.889
1406.62  39.869  23.859
1407.12  39.805  23.859
1407.62  39.805  23.828
1408.12  39.869  23.859
1408.62  39.805  23.859
1409.12  39.805  23.828
1409.62  39.741  23.828
1410.12  39.805  23.889
1410.62  39.805  23.859
1411.12  39.741  23.828
1411.62  39.805  23.828
1412.12  39.805  23.920
1412.62  39.869  23.889
1413.12  39.805  23.859
1413.62  39.741  23.859
1414.12  39.805  23.859
1414.62  39.805  23.859
1415.12  39.805  23.828
1415.62  39.869  23.859
1416.12  39.805  23.920
1416.63  39.805  23.859
1417.13  39.805  23.859
1417.63  39.869  23.859
1418.13  39.805  23.859
1418.63  39.741  23.859
1419.13  39.805  23.889
1419.63  39.869  23.889
1420.13  39.805  23.859
1420.63  39.933  23.828
1421.13  39.869  23.859
1421.63  39.805  23.859
1422.13  39.933  23.889
1422.63  39.869  23.889
1423.13  39.741  23.889
1423.63  39.869  23.859
1424.13  39.869  23.889
1424.63  39.869  23.828
1425.13  39.805  23.859
1425.63  39.869  23.859
1426.13  39.805  23.859
1426.63  39.933  23.859
1427.13  39.805  23.828
1427.63  39.805  23.859
1428.13  39.933  23.920
1428.63  39.869  23.889
1429.13  39.869  23.889
1429.63  39.677  23.859
1430.13  39.869  23.859
1430.63  39.869  23.859
1431.13  39.869  23.828
1431.63  39.933  23.859
1432.13  39.933  23.889
1432.63  39.805  23.859
1433.13  39.869  23.828
1433.63  39.869  23.889
1434.13  39.869  23.889
1434.63  39.869  23.859
1435.13  39.869  23.859
1435.63  39.805  23.859
1436.13  39.869  23.859
1436.63  39.933  23.889
1437.13  39.869  23.859
1437.63  39.869  23.859
1438.13  39.805  23.859
1438.63  39.869  23.889
1439.13  39.869  23.889
1439.63  39.933  23.889
1440.13  39.933  23.889
1440.63  39.869  23.889
1441.13  39.869  23.859
1441.63  39.869  23.859
1442.13  39.869  23.859
1442.63  39.805  23.889
1443.13  39.869  23.859
1443.63  39.869  23.859
1444.13  39.805  23.859
1444.63  39.933  23.859
1445.13  39.933  23.920
1445.63  39.869  23.889
1446.13  39.869  23.889
1446.63  39.933  23.859
1447.13  39.869  23.859
1447.63  39.869  23.889
1448.13  39.869  23.889
1448.63  39.933  23.889
1449.13  39.805  23.859
1449.63  39.933  23.859
1450.13  39.933  23.889
1450.63  39.933  23.889
1451.13  39.933  23.859
1451.63  39.933  23.859
1452.13  39.997  23.920
1452.63  39.933  23.889
1453.13  39.997  23.859
1453.63  39.805  23.859
1454.13  39.869  23.859
1454.63  39.997  23.859
1455.13  39.933  23.859
1455.63  39.869  23.889
1456.13  39.933  23.889
1456.63  39.933  23.859
1457.13  39.933  23.889
1457.63  39.933  23.889
1458.13  39.933  23.859
1458.63  39.869  23.889
1459.13  39.869  23.889
1459.63  39.869  23.859
1460.13  39.997  23.889
1460.63  39.869  23.859
1461.13  39.869  23.920
1461.63  39.933  23.920
1462.13  39.869  23.889
1462.63  39.933  23.889
1463.13  39.933  23.889
1463.63  39.933  23.951
1464.13  39.869  23.889
1464.63  39.933  23.828
1465.13  39.933  23.889
1465.63  39.869  23.889
1466.13  39.933  23.889
1466.63  39.869  23.889
1467.13  39.997  23.889
1467.63  40.077  23.920
1468.13  39.933  23.859
1468.63  40.158  23.920
1469.13  39.997  23.859
1469.63  39.933  23.889
1470.13  39.933  23.920
1470.63  39.933  23.859
1471.13  39.933  23.859
1471.63  39.933  23.889
1472.13  39.869  23.889
1472.63  39.933  23.920
1473.13  39.869  23.889
1473.63  39.933  23.889
1474.13  39.933  23.889
1474.63  39.933  23.920
1475.13  39.933  23.889
1475.63  39.933  23.889
1476.13  39.997  23.920
1476.63  39.997  23.859
1477.13  39.869  23.889
1477.63  39.997  23.889
1478.13  39.933  23.889
1478.63  39.933  23.920
1479.13  39.933  23.889
1479.63  39.933  23.889
1480.13  39.997  23.920
1480.63  39.997  23.889
1481.13  39.933  23.889
1481.63  39.997  23.828
1482.13  39.997  23.889
1482.63  39.933  23.889
1483.13  39.805  23.859
1483.63  39.869  23.889
1484.13  40.239  23.951
1484.63  39.933  23.889
1485.13  39.933  23.889
1485.63  39.933  23.889
1486.13  39.933  23.889
1486.63  39.997  23.889
1487.13  39.997  23.889
1487.63  39.933  23.889
1488.13  39.869  23.859
1488.63  39.933  23.859
1489.13  39.933  23.889
1489.63  39.933  23.889
1490.13  39.933  23.889
1490.63  39.997  23.889
1491.13  39.869  23.828
1491.63  39.933  23.889
1492.13  39.933  23.889
1492.63  40.077  23.889
1493.13  39.933  23.889
1493.63  39.933  23.859
1494.13  40.158  23.920
1494.63  39.997  23.889
1495.13  39.997  23.920
1495.63  39.933  23.920
1496.13  39.933  23.889
1496.63  39.933  23.920
1497.13  39.997  23.889
1497.63  39.997  23.889
1498.13  39.997  23.889
1498.63  39.997  23.859
1499.13  39.997  23.889
1499.63  39.997  23.920
1500.13  39.997  23.859
1500.63  39.933  23.920
1501.13  40.077  23.920
1501.63  39.997  23.889
1502.13  40.077  23.859
1502.63  39.933  23.920
1503.13  39.997  23.889
1503.63  39.997  23.889
1504.13  39.997  23.859
1504.63  39.933  23.859
1505.13  39.997  23.859
1505.63  40.077  23.889
1506.13  40.158  23.859
1506.63  39.997  23.920
1507.13  40.077  23.889
1507.63  39.997  23.920
1508.13  40.077  23.889
1508.63  40.077  23.920
1509.13  39.997  23.889
1509.63  39.869  23.920
1510.13  39.933  23.889
1510.63  40.077  23.889
1511.13  39.997  23.920
1511.63  40.158  23.889
1512.13  40.077  23.889
1512.63  39.997  23.920
1513.13  39.997  23.889
1513.63  40.158  23.889
1514.13  39.997  23.889
1514.63  39.997  23.889
1515.13  39.997  23.889
1515.63  39.997  23.889
1516.13  39.997  23.920
1516.63  40.077  23.920
1517.13  40.158  23.889
1517.63  40.077  23.889
1518.13  40.077  23.889
1518.63  39.933  23.889
1519.13  39.933  23.859
1519.63  39.997  23.889
1520.13  40.077  23.889
1520.63  39.997  23.920
1521.13  40.077  23.889
1521.63  40.077  23.920
1522.13  39.997  23.920
1522.63  39.933  23.889
1523.13  40.077  23.889
1523.63  39.869  23.920
1524.13  39.997  23.920
1524.63  40.077  23.859
1525.13  39.997  23.859
1525.63  40.077  23.889
1526.13  39.997  23.889
1526.63  39.997  23.920
1527.13  39.997  23.889
1527.63  40.077  23.920
1528.13  40.077  23.920
1528.63  39.997  23.889
1529.13  40.077  23.889
1529.64  40.077  23.889
1530.14  40.077  23.889
1530.64  39.997  23.920
1531.14  40.077  23.889
1531.64  39.997  23.889
1532.14  40.077  23.920
1532.64  40.158  23.889
1533.14  39.997  23.920
1533.64  39.997  23.889
1534.14  40.077  23.920
1534.64  40.077  23.951
1535.14  39.997  23.889
1535.64  40.077  23.951
1536.14  40.077  23.859
1536.64  40.077  23.920
1537.14  39.997  23.920
1537.64  40.077  23.920
1538.14  40.077  23.920
1538.64  40.158  23.920
1539.14  40.158  23.889
1539.64  40.077  23.889
1540.14  40.077  23.920
1540.64  40.077  23.920
1541.14  40.077  23.920
1541.64  40.077  23.889
1542.14  40.077  23.920
1542.64  40.077  23.920
1543.14  40.077  23.920
1543.64  40.077  23.889
1544.14  40.077  23.889
1544.64  40.077  23.828
1545.14  40.077  23.889
1545.64  40.077  23.920
1546.14  40.077  23.920
1546.64  40.077  23.920
1547.14  40.077  23.889
1547.64  39.997  23.859
1548.14  40.077  23.920
1548.64  40.158  23.920
1549.14  40.077  23.920
1549.64  40.077  23.889
1550.14  40.077  23.889
1550.64  40.077  23.920
1551.14  40.158  23.920
1551.64  40.077  23.889
1552.14  40.239  23.951
1552.64  40.239  23.859
1553.14  40.158  23.889
1553.64  40.077  23.889
1554.14  40.077  23.920
1554.64  39.997  23.920
1555.14  40.077  23.889
1555.64  40.158  23.920
1556.14  40.077  23.889
1556.64  40.077  23.920
1557.14  40.077  23.889
1557.64  40.077  23.920
1558.14  40.077  23.920
1558.64  40.158  23.920
1559.14  40.077  23.920
1559.64  40.077  23.920
1560.14  40.077  23.920
1560.64  40.158  23.889
1561.14  40.158  23.889
1561.64  40.158  23.889
1562.14  40.158  23.889
1562.64  40.077  23.920
1563.14  40.077  23.920
1563.64  40.077  23.920
1564.14  40.158  23.920
1564.64  39.997  23.889
1565.14  39.997  23.920
1565.64  40.077  23.889
1566.14  40.158  23.889
1566.64  40.077  23.920
1567.14  40.077  23.889
1567.64  40.077  23.889
1568.14  40.077  23.951
1568.64  40.077  23.889
1569.14  40.077  23.889
1569.64  40.158  23.951
1570.14  40.158  23.920
1570.64  40.158  23.951
1571.14  40.077  23.920
1571.64  40.077  23.889
1572.14  40.158  23.951
1572.64  40.077  23.920
1573.14  40.077  23.951
1573.64  40.158  23.889
1574.14  40.158  23.951
1574.64  39.933  23.889
1575.14  40.158  23.920
1575.64  40.077  23.920
1576.14  40.239  23.920
1576.64  40.158  23.982
1577.14  40.077  23.920
1577.64  40.158  23.920
1578.14  40.158  23.889
1578.64  40.077  23.920
1579.14  40.077  23.920
1579.64  40.077  23.920
1580.14  40.158  23.920
1580.64  40.158  23.951
1581.14  40.158  23.920
1581.64  40.158  23.920
1582.14  40.158  23.920
1582.64  40.077  23.982
1583.14  40.158  23.889
1583.64  40.158  23.920
1584.14  40.077  23.920
1584.64  40.239  23.920
1585.14  40.077  23.920
1585.64  40.077  23.889
1586.14  40.158  23.920
1586.64  40.158  23.889
1587.14  40.158  23.920
1587.64  40.158  23.920
1588.14  40.158  23.920
1588.64  40.158  23.920
1589.14  40.077  23.889
1589.64  40.158  23.920
1590.14  40.158  23.920
1590.64  40.158  23.920
1591.14  40.158  23.920
1591.64  40.158  23.889
1592.14  40.158  23.920
1592.64  40.158  23.920
1593.14  40.158  23.920
1593.64  40.158  23.920
1594.14  40.077  23.920
1594.64  40.158  23.889
1595.14  40.158  23.920
1595.64  40.158  23.951
1596.14  40.158  23.889
1596.64  40.158  23.920
1597.14  40.158  23.889
1597.64  40.239  23.920
1598.14  40.158  23.920
1598.64  40.077  23.920
1599.14  40.158  23.920
1599.64  40.077  23.920
1600.14  40.077  23.951
1600.64  40.077  23.951
1601.14  40.158  23.889
1601.64  40.319  23.920
1602.14  40.158  23.920
1602.64  40.239  23.920
1603.14  40.239  23.982
1603.64  40.239  23.889
1604.14  40.158  23.889
1604.64  40.239  23.920
1605.14  40.158  23.920
1605.64  40.158  23.889
1606.14  40.239  23.920
1606.64  40.158  23.920
1607.14  40.158  23.951
1607.64  40.158  23.920
1608.14  40.239  23.920
1608.64  40.239  23.951
1609.14  40.239  23.920
1609.64  40.158  23.951
1610.14  40.158  23.920
1610.64  40.239  23.920
1611.14  40.077  23.951
1611.64  40.077  23.951
1612.14  40.158  23.920
1612.64  40.239  23.951
1613.14  40.158  23.920
1613.64  40.158  23.920
1614.14  40.239  23.920
1614.64  40.158  23.982
1615.14  40.239  23.951
1615.64  40.239  23.920
1616.14  40.239  23.920
1616.64  40.239  23.920
1617.14  40.158  23.951
1617.64  40.158  23.920
1618.14  40.319  23.920
1618.64  40.158  23.920
1619.14  40.239  23.920
1619.64  40.400  23.951
1620.14  40.239  23.951
1620.64  40.158  23.951
1621.14  40.239  23.951
1621.64  40.239  23.951
1622.14  40.239  23.920
1622.64  40.239  23.951
1623.14  40.158  23.889
1623.64  40.158  23.920
1624.14  40.158  23.920
1624.64  40.239  23.951
1625.14  40.239  23.951
1625.64  40.239  23.951
1626.14  40.239  23.920
1626.64  40.239  23.920
1627.14  40.239  23.920
1627.64  40.239  23.920
1628.14  40.158  23.889
1628.64  40.239  23.920
1629.14  40.239  23.951
1629.64  40.158  23.951
1630.14  40.158  23.920
1630.64  40.239  23.951
1631.14  40.400  23.920
1631.64  40.239  23.920
1632.14  40.239  23.920
1632.64  40.319  23.951
1633.14  40.239  23.920
1633.64  40.239  23.982
1634.14  40.239  23.920
1634.64  40.239  23.920
1635.14  40.239  23.920
1635.64  40.319  23.920
1636.14  40.239  23.920
1636.64  40.319  23.951
1637.14  40.158  23.920
1637.64  40.239  23.920
1638.14  40.319  23.889
1638.64  40.239  23.951
1639.14  40.239  23.951
1639.64  40.239  23.951
1640.14  40.158  23.951
1640.64  40.239  23.951
1641.14  40.319  23.951
1641.64  40.239  23.920
1642.14  40.239  23.982
1642.65  40.239  23.920
1643.15  40.239  23.951
1643.65  40.319  23.951
1644.15  40.239  23.951
1644.65  40.319  23.951
1645.15  40.239  23.951
1645.65  40.319  23.951
1646.15  40.077  23.951
1646.65  40.239  23.920
1647.15  40.239  23.951
1647.65  40.239  23.951
1648.15  40.158  23.920
1648.65  40.239  23.951
1649.15  40.319  23.951
1649.65  40.239  23.920
1650.15  40.077  23.920
1650.65  40.319  23.951
1651.15  40.319  23.951
1651.65  40.319  23.951
1652.15  40.319  23.951
1652.65  40.239  23.951
1653.15  40.319  23.951
1653.65  40.319  23.982
1654.15  40.239  23.982
1654.65  40.319  23.951
1655.15  40.319  23.951
1655.65  40.239  23.920
1656.15  40.319  23.951
1656.65  40.239  23.951
1657.15  40.319  23.951
1657.65  40.239  23.982
1658.15  40.239  23.920
1658.65  40.319  23.982
1659.15  40.239  23.951
1659.65  40.319  23.951
1660.15  40.239  23.920
1660.65  40.400  24.013
1661.15  40.239  23.951
1661.65  40.400  23.951
1662.15  40.239  23.951
1662.65  40.319  23.920
1663.15  40.400  23.951
1663.65  40.239  23.982
1664.15  40.319  23.920
1664.65  40.319  23.951
1665.15  40.319  23.951
1665.65  40.239  23.920
1666.15  40.319  23.982
1666.65  40.319  23.920
1667.15  40.239  23.951
1667.65  40.319  23.982
1668.15  40.319  23.951
1668.65  40.239  23.920
1669.15  40.400  23.920
1669.65  40.319  23.951
1670.15  40.239  23.951
1670.65  40.319  23.951
1671.15  40.239  23.951
1671.65  40.239  23.951
1672.15  40.239  23.951
1672.65  40.319  23.982
1673.15  40.319  23.920
1673.65  40.319  23.920
1674.15  40.319  23.889
1674.65  40.239  23.920
1675.15  40.319  23.951
1675.65  40.319  23.920
1676.15  40.319  23.951
1676.65  40.319  23.920
1677.15  40.319  23.951
1677.65  40.239  23.920
1678.15  40.319  23.920
1678.65  40.239  23.951
1679.15  40.319  23.951
1679.65  40.319  23.920
1680.15  40.319  23.951
1680.65  40.239  23.951
1681.15  40.319  23.951
1681.65  40.319  23.951
1682.15  40.400  23.951
1682.65  40.319  23.982
1683.15  40.400  23.951
1683.65  40.319  23.920
1684.15  40.400  23.920
1684.65  40.319  23.951
1685.15  40.319  23.982
1685.65  40.239  23.920
1686.15  40.319  23.951
1686.65  40.319  23.982
1687.15  40.239  23.951
1687.65  40.319  23.951
1688.15  40.400  23.920
1688.65  40.400  23.951
1689.15  40.319  23.951
1689.65  40.319  23.920
1690.15  40.400  23.982
1690.65  40.400  23.982
1691.15  40.319  23.951
1691.65  40.239  23.951
1692.15  40.319  24.013
1692.65  40.319  23.982
1693.15  40.319  23.920
1693.65  40.319  23.951
1694.15  40.319  23.951
1694.65  40.319  23.982
1695.15  40.319  23.951
1695.65  40.400  23.951
1696.15  40.319  23.951
1696.65  40.319  23.951
1697.15  40.400  23.951
1697.65  40.400  23.982
1698.15  40.319  24.013
1698.65  40.481  23.951
1699.15  40.400  23.951
1699.65  40.319  23.951
1700.15  40.400  23.951
1700.65  40.400  23.951
1701.15  40.400  23.982
1701.65  40.239  23.951
1702.15  40.319  23.982
1702.65  40.400  23.951
1703.15  40.400  23.982
1703.65  40.400  23.982
1704.15  40.400  23.951
1704.65  40.319  23.920
1705.15  40.319  23.951
1705.65  40.319  23.951
1706.15  40.481  23.982
1706.65  40.400  23.951
1707.15  40.319  23.951
1707.65  40.481  23.982
1708.15  40.319  23.982
1708.65  40.319  23.951
1709.15  40.319  23.951
1709.65  40.400  23.951
1710.15  40.400  23.951
1710.65  40.319  23.982
1711.15  40.481  23.982
1711.65  40.319  23.951
1712.15  40.481  23.951
1712.65  40.400  23.982
1713.15  40.481  23.951
1713.65  40.319  23.982
1714.15  40.319  23.951
1714.65  40.400  23.951
1715.15  40.400  23.951
1715.65  40.481  23.951
1716.15  40.400  23.951
1716.65  40.319  23.951
1717.15  40.319  23.982
1717.65  40.481  23.951
1718.15  40.319  23.951
1718.65  40.400  23.951
1719.15  40.481  23.982
1719.65  40.481  23.920
1720.15  40.400  23.951
1720.65  40.239  23.982
1721.15  40.400  23.951
1721.65  40.400  24.013
1722.15  40.400  23.982
1722.65  40.400  23.951
1723.15  40.400  23.982
1723.65  40.481  24.013
1724.15  40.481  23.982
1724.65  40.400  23.982
1725.15  40.400  23.982
1725.65  40.481  23.982
1726.15  40.400  23.951
1726.65  40.319  23.982
1727.15  40.319  23.951
1727.65  40.400  24.013
1728.15  40.400  23.982
1728.65  40.319  23.951
1729.15  40.400  23.951
1729.65  40.400  23.951
1730.15  40.319  23.982
1730.65  40.319  23.982
1731.15  40.400  23.982
1731.65  40.319  23.982
1732.15  40.481  23.982
1732.65  40.400  23.982
1733.15  40.400  23.982
1733.65  40.400  23.982
1734.15  40.400  23.982
1734.65  40.481  23.982
1735.15  40.481  23.982
1735.65  40.319  23.982
1736.15  40.481  23.982
1736.65  40.481  23.951
1737.15  40.400  23.951
1737.65  40.400  23.982
1738.15  40.481  23.982
1738.65  40.400  23.951
1739.15  40.400  23.951
1739.65  40.400  23.982
1740.15  40.481  24.013
1740.65  40.400  23.951
1741.15  40.400  23.982
1741.65  40.400  23.951
1742.15  40.400  23.982
1742.65  40.400  23.951
1743.15  40.400  23.982
1743.65  40.481  23.982
1744.15  40.400  23.951
1744.65  40.481  23.951
1745.15  40.400  23.982
1745.65  40.400  23.951
1746.15  40.400  23.982
1746.65  40.481  23.982
1747.15  40.400  24.013
1747.65  40.481  23.951
1748.15  40.481  23.982
1748.65  40.481  23.982
1749.15  40.481  23.982
1749.65  40.400  24.013
1750.15  40.400  23.982
1750.65  40.400  23.951
1751.15  40.400  23.982
1751.65  40.400  23.951
1752.15  40.481  23.920
1752.65  40.481  23.920
1753.15  40.400  23.982
1753.65  40.481  23.951
1754.15  40.561  23.982
1754.65  40.481  23.982
1755.15  40.481  23.951
1755.66  40.642  23.951
1756.16  40.561  23.982
1756.66  40.481  23.951
1757.16  40.400  23.982
1757.66  40.561  23.982
1758.16  40.481  23.982
1758.66  40.481  24.013
1759.16  40.400  23.982
1759.66  40.400  24.013
1760.16  40.481  23.982
1760.66  40.481  23.982
1761.16  40.400  23.982
1761.66  40.481  23.982
1762.16  40.319  23.982
1762.66  40.400  23.982
1763.16  40.400  23.982
1763.66  40.481  23.982
1764.16  40.561  23.982
1764.66  40.481  23.951
1765.16  40.481  23.920
1765.66  40.481  23.982
1766.16  40.400  23.951
1766.66  40.481  23.982
1767.16  40.400  23.951
1767.66  40.561  23.982
1768.16  40.400  23.920
1768.66  40.400  23.951
1769.16  40.481  23.982
1769.66  40.481  23.951
1770.16  40.481  23.982
1770.66  40.400  23.982
1771.16  40.481  23.951
1771.66  40.481  23.951
1772.16  40.481  23.982
1772.66  40.481  24.013
1773.16  40.481  23.982
1773.66  40.400  23.982
1774.16  40.561  23.982
1774.66  40.481  23.982
1775.16  40.400  23.951
1775.66  40.481  23.982
1776.16  40.481  23.982
1776.66  40.561  24.013
1777.16  40.481  24.013
1777.66  40.481  23.982
1778.16  40.561  23.951
1778.66  40.319  23.982
1779.16  40.481  23.951
1779.66  40.561  23.982
1780.16  40.481  24.013
1780.66  40.561  23.982
1781.16  40.481  23.982
1781.66  40.481  24.013
1782.16  40.481  24.013
1782.66  40.561  23.982
1783.16  40.400  23.982
1783.66  40.481  23.982
1784.16  40.481  23.982
1784.66  40.481  23.982
1785.16  40.400  24.074
1785.66  40.481  23.982
1786.16  40.642  24.013
1786.66  40.481  24.013
1787.16  40.481  23.951
1787.66  40.481  23.951
1788.16  40.561  23.920
1788.66  40.481  24.013
1789.16  40.400  24.013
1789.66  40.481  24.043
1790.16  40.481  24.013
1790.66  40.561  23.951
1791.16  40.561  24.043
1791.66  40.561  24.013
1792.16  40.561  24.043
1792.66  40.561  23.982
1793.16  40.561  24.013
1793.66  40.481  24.013
1794.16  40.481  24.013
1794.66  40.481  24.013
1795.16  40.481  23.982
1795.66  40.561  24.013
1796.16  40.481  24.013
1796.66  40.481  23.982
1797.16  40.481  24.013
1797.66  40.481  24.013
1798.16  40.561  23.982
1798.66  40.642  23.982
1799.16  40.561  23.982
1799.66  40.481  23.982
1800.16  40.561  23.982
1800.66  40.481  24.013
1801.16  40.561  24.013
1801.66  40.481  23.982
1802.16  40.481  23.982
1802.66  40.481  23.982
1803.16  40.561  24.013
1803.66  40.481  24.013
1804.16  40.561  23.951
1804.66  40.481  23.982
1805.16  40.561  24.013
1805.66  40.481  24.013
1806.16  40.481  23.982
1806.66  40.642  23.982
1807.16  40.481  23.951
1807.66  40.642  24.013
1808.16  40.561  24.043
1808.66  40.481  23.982
1809.16  40.561  24.013
1809.66  40.481  24.013
1810.16  40.481  23.982
1810.66  40.481  24.043
1811.16  40.561  24.013
1811.66  40.642  24.013
1812.16  40.481  23.982
1812.66  40.481  24.013
1813.16  40.481  24.013
1813.66  40.561  23.982
1814.16  40.561  23.982
1814.66  40.481  24.013
1815.16  40.723  24.013
1815.66  40.481  24.013
1816.16  40.481  24.013
1816.66  40.400  24.013
1817.16  40.561  24.013
1817.66  40.561  24.013
1818.16  40.481  23.982
1818.66  40.481  24.013
1819.16  40.400  24.013
1819.66  40.481  24.013
1820.16  40.561  24.013
1820.66  40.642  23.982
1821.16  40.561  24.043
1821.66  40.561  24.013
1822.16  40.561  24.013
1822.66  40.561  24.043
1823.16  40.723  24.013
1823.66  40.561  24.013
1824.16  40.642  24.013
1824.66  40.561  24.043
1825.16  40.561  24.074
1825.66  40.561  24.013
1826.16  40.561  24.013
1826.66  40.481  23.982
1827.16  40.561  24.013
1827.66  40.561  24.013
1828.16  40.561  23.982
1828.66  40.561  24.043
1829.16  40.642  23.982
1829.66  40.481  24.013
1830.16  40.642  24.043
1830.66  40.642  24.043
1831.16  40.561  24.043
1831.66  40.561  24.043
1832.16  40.642  24.013
1832.66  40.561  24.013
1833.16  40.561  24.013
1833.66  40.400  24.013
1834.16  40.561  24.013
1834.66  40.561  23.982
1835.16  40.642  24.043
1835.66  40.561  24.013
1836.16  40.561  24.043
1836.66  40.561  24.043
1837.16  40.561  24.013
1837.66  40.561  24.013
1838.16  40.642  24.013
1838.66  40.481  24.013
1839.16  40.561  24.013
1839.66  40.561  24.013
1840.16  40.561  24.013
1840.66  40.561  24.043
1841.16  40.561  24.013
1841.66  40.561  24.043
1842.16  40.642  23.982
1842.66  40.561  23.982
1843.16  40.481  24.013
1843.66  40.642  24.013
1844.16  40.561  24.013
1844.66  40.561  24.043
1845.16  40.561  23.982
1845.66  40.642  24.013
1846.16  40.642  24.013
1846.66  40.561  24.043
1847.16  40.642  23.982
1847.66  40.561  24.013
1848.16  40.561  23.982
1848.66  40.561  24.013
1849.16  40.561  24.013
1849.66  40.561  23.982
1850.16  40.561  24.013
1850.66  40.642  24.043
1851.16  40.561  23.982
1851.66  40.642  24.013
1852.16  40.642  24.043
1852.66  40.561  24.013
1853.16  40.642  24.013
1853.66  40.561  24.013
1854.16  40.561  24.013
1854.66  40.642  23.982
1855.16  40.642  24.043
1855.66  40.642  24.013
1856.16  40.642  24.043
1856.66  40.561  24.013
1857.16  40.561  24.013
1857.66  40.561  23.982
1858.16  40.642  24.043
1858.66  40.642  24.013
1859.16  40.561  23.982
1859.66  40.642  24.013
1860.16  40.642  23.982
1860.66  40.723  24.074
1861.16  40.561  24.043
1861.66  40.642  24.043
1862.16  40.642  24.013
1862.66  40.642  24.043
1863.16  40.642  24.013
1863.66  40.561  24.013
1864.16  40.561  23.982
1864.66  40.642  24.043
1865.16  40.642  24.013
1865.66  40.561  24.013
1866.16  40.642  24.013
1866.66  40.723  24.013
1867.16  40.561  24.074
1867.66  40.642  24.043
1868.16  40.642  24.013
1868.66  40.561  23.982
1869.17  40.642  24.013
1869.67  40.642  24.043
1870.17  40.642  24.013
1870.67  40.642  24.013
1871.17  40.642  24.043
1871.67  40.561  24.013
1872.17  40.481  24.013
1872.67  40.561  24.013
1873.17  40.642  24.013
1873.67  40.561  23.982
1874.17  40.561  24.013
1874.67  40.561  24.013
1875.17  40.723  24.013
1875.67  40.561  24.074
1876.17  40.642  24.013
1876.67  40.723  24.043
1877.17  40.642  24.043
1877.67  40.642  24.043
1878.17  40.642  24.013
1878.67  40.642  23.982
1879.17  40.561  24.043
1879.67  40.561  23.982
1880.17  40.642  24.043
1880.67  40.642  24.013
1881.17  40.642  24.013
1881.67  40.884  24.013
1882.17  40.642  24.043
1882.67  40.642  23.982
1883.17  40.723  24.013
1883.67  40.642  24.013
1884.17  40.561  24.043
1884.67  40.642  24.043
1885.17  40.642  24.013
1885.67  40.561  23.982
1886.17  40.561  24.013
1886.67  40.642  24.013
1887.17  40.723  24.013
1887.67  40.723  24.013
1888.17  40.561  24.043
1888.67  40.723  24.043
1889.17  40.642  24.043
1889.67  40.642  24.013
1890.17  40.561  24.013
1890.67  40.642  24.013
1891.17  40.723  24.013
1891.67  40.884  24.043
1892.17  40.642  24.043
1892.67  40.561  24.043
1893.17  40.561  24.013
1893.67  40.561  24.043
1894.17  40.561  24.043
1894.67  40.642  24.043
1895.17  40.561  24.043
1895.67  40.642  24.013
1896.17  40.642  24.013
1896.67  40.723  23.982
1897.17  40.723  24.043
1897.67  40.642  24.013
1898.17  40.642  24.043
1898.67  40.642  24.013
1899.17  40.723  23.982
1899.67  40.561  24.013
1900.17  40.481  24.013
1900.67  40.561  24.013
1901.17  40.481  24.043
1901.67  40.642  24.043
1902.17  40.642  24.043
1902.67  40.803  24.013
1903.17  40.642  24.043
1903.67  40.642  24.043
1904.17  40.642  24.013
1904.67  40.642  24.013
1905.17  40.642  24.013
1905.67  40.723  24.043
1906.17  40.642  24.043
1906.67  40.642  24.043
1907.17  40.642  24.043
1907.67  40.642  24.013
1908.17  40.723  24.074
1908.67  40.561  24.013
1909.17  40.642  23.951
1909.67  40.642  24.043
1910.17  40.642  24.013
1910.67  40.723  24.013
1911.17  40.642  24.043
1911.67  40.642  23.982
1912.17  40.642  24.043
1912.67  40.723  24.043
1913.17  40.642  24.074
1913.67  40.642  24.013
1914.17  40.642  23.982
1914.67  40.723  24.013
1915.17  40.723  24.043
1915.67  40.723  24.043
1916.17  40.723  24.043
1916.67  40.642  24.013
1917.17  40.642  24.043
1917.67  40.723  24.074
1918.17  40.723  24.074
1918.67  40.723  23.982
1919.17  40.723  24.013
1919.67  40.723  24.043
1920.17  40.723  24.043
1920.67  40.723  24.043
1921.17  40.723  24.043
1921.67  40.723  24.043
1922.17  40.561  24.043
1922.67  40.723  24.074
1923.17  40.642  24.043
1923.67  40.884  24.013
1924.17  40.884  24.043
1924.67  40.561  24.013
1925.17  40.642  24.013
1925.67  40.642  24.074
1926.17  40.642  24.043
1926.67  40.723  24.013
1927.17  40.723  24.043
1927.67  40.642  24.013
1928.17  40.642  24.013
1928.67  40.723  24.043
1929.17  40.642  24.043
1929.67  40.642  24.043
1930.17  40.723  24.043
1930.67  40.642  24.043
1931.17  40.803  24.043
1931.67  40.723  24.074
1932.17  40.642  24.043
1932.67  40.723  24.013
1933.17  40.803  24.043
1933.67  40.642  24.013
1934.17  40.642  24.013
1934.67  40.803  24.074
1935.17  40.642  24.043
1935.67  40.723  24.043
1936.17  40.642  24.043
1936.67  40.561  24.043
1937.17  40.723  24.043
1937.67  40.642  24.043
1938.17  40.723  24.074
1938.67  40.642  24.043
1939.17  40.642  24.043
1939.67  40.642  24.043
1940.17  40.723  24.074
1940.67  40.642  24.043
1941.17  40.723  24.043
1941.67  40.723  24.043
1942.17  40.723  24.013
1942.67  40.723  23.982
1943.17  40.803  24.043
1943.67  40.723  24.013
1944.17  40.723  24.013
1944.67  40.642  24.043
1945.17  40.723  24.043
1945.67  40.723  24.043
1946.17  40.723  24.043
1946.67  40.723  24.043
1947.17  40.723  24.043
1947.67  40.723  24.043
1948.17  40.723  24.043
1948.67  40.803  24.013
1949.17  40.642  24.043
1949.67  40.723  24.013
1950.17  40.723  24.043
1950.67  40.803  24.043
1951.17  40.723  24.043
1951.67  40.723  24.074
1952.17  40.723  24.074
1952.67  40.723  24.074
1953.17  40.642  24.043
1953.67  40.803  24.013
1954.17  40.723  24.074
1954.67  40.723  24.074
1955.17  40.723  24.043
1955.67  40.723  24.043
1956.17  40.723  24.043
1956.67  40.803  24.074
1957.17  40.803  24.043
1957.67  40.803  24.043
1958.17  40.803  24.043
1958.67  40.803  24.043
1959.17  40.723  24.043
1959.67  40.884  24.074
1960.17  40.561  24.043
1960.67  40.642  24.074
1961.17  40.803  24.043
1961.67  40.723  24.074
1962.17  40.723  24.043
1962.67  40.723  24.074
1963.17  40.723  24.043
1963.67  40.723  24.074
1964.17  40.723  24.074
1964.67  40.803  24.013
1965.17  40.723  24.043
1965.67  40.642  24.043
1966.17  40.803  24.043
1966.67  40.723  24.013
1967.17  40.723  24.043
1967.67  40.642  24.105
1968.17  40.723  24.013
1968.67  40.723  24.074
1969.17  40.561  24.043
1969.67  40.723  24.043
1970.17  40.723  24.043
1970.67  40.803  24.043
1971.17  40.803  24.074
1971.67  40.803  24.043
1972.17  40.803  24.074
1972.67  40.723  24.074
1973.17  40.723  24.074
1973.67  40.642  24.074
1974.17  40.723  24.043
1974.67  40.803  24.043
1975.17  40.723  24.043
1975.67  40.723  24.043
1976.17  40.803  24.074
1976.67  40.803  24.013
1977.17  40.723  24.043
1977.67  40.965  24.043
1978.17  40.723  24.074
1978.67  40.723  24.043
1979.17  40.803  24.043
1979.67  40.803  24.043
1980.17  40.803  24.043
1980.67  40.642  24.013
1981.17  40.803  24.074
1981.67  40.723  24.074
1982.18  40.803  24.043
1982.68  40.803  24.074
1983.18  40.884  24.043
1983.68  40.803  24.043
1984.18  40.723  24.043
1984.68  40.884  24.043
1985.18  40.884  24.043
1985.68  40.723  24.043
1986.18  40.803  24.074
1986.68  40.803  24.043
1987.18  40.723  24.043
1987.68  40.723  24.043
1988.18  40.803  24.013
1988.68  40.803  24.013
1989.18  40.723  24.074
1989.68  40.803  24.043
1990.18  40.803  24.043
1990.68  40.884  24.074
1991.18  40.803  23.951
1991.68  40.803  24.105
1992.18  40.884  24.043
1992.68  40.723  24.105
1993.18  40.803  24.043
1993.68  40.803  24.074
1994.18  40.723  24.074
1994.68  40.642  24.074
1995.18  40.723  24.074
1995.68  40.803  24.105
1996.18  40.803  24.043
1996.68  40.803  24.074
1997.18  40.803  24.043
1997.68  40.803  24.105
1998.18  40.803  24.043
1998.68  40.803  24.043
1999.18  40.642  24.013
1999.68  40.803  24.043
2000.18  40.803  24.074
2000.68  40.803  24.074
2001.18  40.803  24.043
2001.68  40.884  24.074
2002.18  40.803  24.105
2002.68  40.803  24.043
2003.18  40.723  24.074
2003.68  40.803  24.074
2004.18  40.884  24.043
2004.68  40.723  24.074
2005.18  40.723  24.043
2005.68  40.803  24.074
2006.18  40.723  24.105
2006.68  40.803  24.074
2007.18  40.803  24.043
2007.68  40.803  24.074
2008.18  40.723  24.074
2008.68  40.803  24.074
2009.18  40.803  24.074
2009.68  40.803  24.074
2010.18  40.803  24.074
2010.68  40.723  24.074
2011.18  40.803  24.074
2011.68  40.884  24.074
2012.18  40.723  24.043
2012.68  40.723  24.074
2013.18  40.803  24.043
2013.68  40.803  24.074
2014.18  40.803  24.074
2014.68  40.803  24.074
2015.18  40.803  24.043
2015.68  40.803  24.074
2016.18  40.803  24.074
2016.68  41.045  24.043
2017.18  40.803  24.105
2017.68  40.803  24.043
2018.18  40.884  24.043
2018.68  40.884  24.074
2019.18  40.884  24.105
2019.68  40.884  24.074
2020.18  40.803  24.074
2020.68  40.884  24.074
2021.18  40.803  24.136
2021.68  40.803  24.074
2022.18  40.803  24.074
2022.68  40.803  24.043
2023.18  40.884  24.074
2023.68  40.803  24.043
2024.18  40.803  24.043
2024.68  40.884  24.043
2025.18  40.803  24.013
2025.68  40.884  24.043
2026.18  40.803  24.074
2026.68  40.803  24.043
2027.18  40.803  24.043
2027.68  40.965  24.074
2028.18  40.803  24.043
2028.68  40.965  24.043
2029.18  40.803  24.074
2029.68  40.884  24.074
2030.18  40.884  24.013
2030.68  40.803  24.043
2031.18  40.803  24.074
2031.68  40.803  24.043
2032.18  40.965  24.043
2032.68  40.803  24.074
2033.18  40.884  24.105
2033.68  40.803  24.074
2034.18  40.884  24.074
2034.68  40.803  24.105
2035.18  40.803  24.074
2035.68  40.803  24.074
2036.18  40.884  24.074
2036.68  40.884  24.074
2037.18  40.884  24.074
2037.68  40.723  24.074
2038.18  40.803  24.074
2038.68  40.723  24.074
2039.18  40.965  24.074
2039.68  40.803  24.043
2040.18  40.803  24.074
2040.68  40.803  24.074
2041.18  40.803  24.074
2041.68  40.803  24.074
2042.18  40.884  24.043
2042.68  40.803  24.043
2043.18  40.803  24.074
2043.68  41.045  24.043
2044.18  40.803  24.043
2044.68  40.884  24.074
2045.18  40.803  24.105
2045.68  40.803  24.105
2046.18  40.803  24.074
2046.68  40.884  24.074
2047.18  40.884  24.043
2047.68  40.884  24.105
2048.18  40.884  24.074
2048.68  40.884  24.074
2049.18  40.803  24.074
2049.68  40.803  24.074
2050.18  40.803  24.074
2050.68  40.965  24.167
2051.18  40.965  24.074
2051.68  40.884  24.105
2052.18  40.803  24.074
2052.68  40.884  24.105
2053.18  40.884  24.074
2053.68  40.884  24.074
2054.18  40.803  24.074
2054.68  40.884  24.136
2055.18  40.884  24.043
2055.68  40.884  24.074
2056.18  40.884  24.105
2056.68  40.884  24.043
2057.18  40.884  24.074
2057.68  40.884  24.074
2058.18  40.884  24.074
2058.68  40.884  24.074
2059.18  40.965  24.074
2059.68  40.884  24.074
2060.18  40.884  24.074
2060.68  40.884  24.105
2061.18  40.803  24.074
2061.68  40.884  24.074
2062.18  40.884  24.043
2062.68  40.884  24.074
2063.18  40.884  24.043
2063.68  40.884  24.043
2064.18  40.965  24.043
2064.68  40.884  24.074
2065.18  40.803  24.074
2065.68  40.723  24.136
2066.18  40.884  24.074
2066.68  40.884  24.043
2067.18  41.126  24.136
2067.68  40.884  24.043
2068.18  40.965  24.074
2068.68  40.965  24.074
2069.18  40.723  24.105
2069.68  40.965  24.074
2070.18  40.884  24.074
2070.68  40.884  24.074
2071.18  40.884  24.043
2071.68  40.884  24.074
2072.18  40.803  24.074
2072.68  40.884  24.074
2073.18  40.884  24.105
2073.68  40.884  24.074
2074.18  40.965  24.074
2074.68  40.884  24.074
2075.18  40.884  24.105
2075.68  40.965  24.074
2076.18  40.884  24.074
2076.68  40.723  24.105
2077.18  40.803  24.074
2077.68  40.884  24.105
2078.18  41.045  24.074
2078.68  40.965  24.105
2079.18  40.965  24.043
2079.68  40.965  24.074
2080.18  40.884  24.043
2080.68  40.965  24.074
2081.18  40.884  24.105
2081.68  40.884  24.074
2082.18  40.965  24.074
2082.68  40.884  24.105
2083.18  40.965  24.074
2083.68  40.884  24.074
2084.18  40.884  24.074
2084.68  40.803  24.074
2085.18  40.884  24.105
2085.68  40.965  24.105
2086.18  40.884  24.105
2086.68  40.884  24.105
2087.18  40.803  24.105
2087.68  40.884  24.074
2088.18  40.884  24.105
2088.68  40.884  24.105
2089.18  40.884  24.074
2089.68  40.965  24.105
2090.18  40.884  24.105
2090.68  40.965  24.074
2091.18  40.884  24.074
2091.68  40.884  24.074
2092.18  40.965  24.043
2092.68  40.965  24.105
2093.18  40.965  24.105
2093.68  40.884  24.105
2094.18  40.884  24.074
2094.68  40.803  24.136
2095.19  40.803  24.074
2095.69  40.803  24.105
2096.19  40.884  24.074
2096.69  40.884  24.105
2097.19  40.965  24.074
2097.69  40.803  24.105
2098.19  40.884  24.105
2098.69  40.803  24.105
2099.19  40.803  24.074
2099.69  40.965  24.105
2100.19  40.884  24.105
2100.69  40.965  24.074
2101.19  40.884  24.074
2101.69  40.723  24.074
2102.19  40.884  24.136
2102.69  40.884  24.074
2103.19  40.884  24.074
2103.69  40.965  24.105
2104.19  40.884  24.074
2104.69  40.965  24.074
2105.19  40.965  24.105
2105.69  40.884  24.074
2106.19  40.965  24.074
2106.69  40.965  24.074
2107.19  40.965  24.074
2107.69  40.884  24.105
2108.19  40.884  24.074
2108.69  40.884  24.074
2109.19  40.884  24.136
2109.69  40.884  24.074
2110.19  40.965  24.105
2110.69  40.884  24.105
2111.19  40.965  24.105
2111.69  40.884  24.105
2112.19  40.965  24.105
2112.69  40.884  24.105
2113.19  40.965  24.105
2113.69  40.884  24.136
2114.19  40.884  24.105
2114.69  40.965  24.105
2115.19  40.965  24.105
2115.69  40.803  24.074
2116.19  40.884  24.105
2116.69  40.965  24.136
2117.19  40.884  24.074
2117.69  40.884  24.074
2118.19  40.965  24.043
2118.69  40.884  24.074
2119.19  40.965  24.136
2119.69  40.965  24.074
2120.19  40.884  24.074
2120.69  40.965  24.105
2121.19  40.803  24.074
2121.69  40.965  24.105
2122.19  40.965  24.043
2122.69  40.884  24.105
2123.19  40.884  24.105
2123.69  40.965  24.074
2124.19  40.884  24.074
2124.69  40.965  24.074
2125.19  40.884  24.136
2125.69  40.965  24.105
2126.19  40.965  24.074
2126.69  40.884  24.043
2127.19  40.884  24.074
2127.69  41.126  24.105
2128.19  40.884  24.074
2128.69  40.884  24.074
2129.19  40.884  24.074
2129.69  40.884  24.105
2130.19  40.884  24.105
2130.69  40.965  24.105
2131.19  40.965  24.074
2131.69  40.884  24.105
2132.19  40.965  24.105
2132.69  40.965  24.105
2133.19  40.965  24.105
2133.69  40.803  24.136
2134.19  40.965  24.074
2134.69  41.045  24.105
2135.19  40.965  24.105
2135.69  40.965  24.105
2136.19  41.045  24.074
2136.69  40.965  24.074
2137.19  41.045  24.074
2137.69  40.965  24.074
2138.19  40.965  24.136
2138.69  40.965  24.105
2139.19  40.884  24.105
2139.69  40.965  24.105
2140.19  40.965  24.105
2140.69  40.965  24.105
2141.19  41.045  24.105
2141.69  40.965  24.136
2142.19  41.045  24.136
2142.69  41.045  24.136
2143.19  41.045  24.074
2143.69  40.884  24.105
2144.19  40.965  24.105
2144.69  40.884  24.105
2145.19  40.965  24.105
2145.69  40.965  24.074
2146.19  40.884  24.074
2146.69  41.045  24.105
2147.19  40.965  24.105
2147.69  41.045  24.136
2148.19  40.884  24.105
2148.69  40.965  24.074
2149.19  40.965  24.105
2149.69  40.965  24.105
2150.19  41.045  24.105
2150.69  41.045  24.105
2151.19  40.965  24.105
2151.69  41.045  24.074
2152.19  40.965  24.105
2152.69  40.965  24.074
2153.19  40.965  24.136
2153.69  40.965  24.105
2154.19  40.965  24.074
2154.69  41.045  24.136
2155.19  40.884  24.105
2155.69  40.965  24.074
2156.19  40.965  24.105
2156.69  41.045  24.105
2157.19  40.965  24.074
2157.69  40.965  24.074
2158.19  41.045  24.136
2158.69  40.965  24.105
2159.19  40.965  24.105
2159.69  40.965  24.105
2160.19  40.965  24.105
2160.69  40.965  24.105
2161.19  40.965  24.136
2161.69  40.965  24.105
2162.19  40.884  24.105
2162.69  40.965  24.105
2163.19  40.965  24.105
2163.69  40.965  24.105
2164.19  41.045  24.105
2164.69  41.045  24.136
2165.19  40.965  24.136
2165.69  41.045  24.105
2166.19  41.045  24.136
2166.69  40.965  24.136
2167.19  40.965  24.105
2167.69  41.045  24.105
2168.19  41.045  24.105
2168.69  41.045  24.136
2169.19  41.045  24.074
2169.69  41.045  24.074
2170.19  41.045  24.136
2170.69  40.965  24.074
2171.19  40.965  24.105
2171.69  41.045  24.105
2172.19  41.045  24.105
2172.69  41.045  24.136
2173.19  40.965  24.105
2173.69  41.045  24.074
2174.19  41.045  24.105
2174.69  41.045  24.136
2175.19  40.965  24.136
2175.69  41.126  24.105
2176.19  40.965  24.105
2176.69  40.965  24.105
2177.19  41.045  24.105
2177.69  41.045  24.105
2178.19  40.965  24.105
2178.69  40.965  24.105
2179.19  40.965  24.105
2179.69  41.045  24.105
2180.19  41.045  24.105
2180.69  41.045  24.105
2181.19  40.965  24.136
2181.69  41.045  24.136
2182.19  41.045  24.105
2182.69  40.965  24.105
2183.19  40.965  24.136
2183.69  41.045  24.136
2184.19  40.965  24.074
2184.69  41.045  24.136
2185.19  41.045  24.105
2185.69  40.965  24.105
2186.19  40.965  24.136
2186.69  41.045  24.105
2187.19  40.965  24.105
2187.69  41.045  24.105
2188.19  41.045  24.074
2188.69  41.045  24.105
2189.19  41.045  24.105
2189.69  40.965  24.136
2190.19  40.965  24.167
2190.69  41.045  24.105
2191.19  41.045  24.105
2191.69  40.965  24.105
2192.19  41.045  24.136
2192.69  41.045  24.136
2193.19  41.045  24.105
2193.69  41.045  24.167
2194.19  41.045  24.197
2194.69  40.965  24.105
2195.19  41.045  24.105
2195.69  41.045  24.105
2196.19  41.045  24.105
2196.69  41.045  24.136
2197.19  41.126  24.105
2197.70  41.045  24.105
2198.20  41.045  24.167
2198.70  40.965  24.105
2199.20  41.045  24.105
2199.70  40.965  24.136
2200.20  41.045  24.105
2200.70  40.965  24.105
2201.20  41.126  24.105
2201.70  41.045  24.136
2202.20  40.965  24.105
2202.70  40.965  24.105
2203.20  40.965  24.136
2203.70  40.965  24.105
2204.20  40.803  24.105
2204.70  41.045  24.167
2205.20  41.045  24.105
2205.70  40.965  24.136
2206.20  41.206  24.136
2206.70  41.045  24.136
2207.20  40.965  24.136
2207.70  40.884  24.136
2208.20  41.126  24.136
2208.70  41.045  24.105
2209.20  41.126  24.105
2209.70  41.045  24.105
2210.20  41.045  24.136
2210.70  41.045  24.105
2211.20  40.884  24.167
2211.70  41.045  24.136
2212.20  41.045  24.105
2212.70  41.045  24.105
2213.20  41.126  24.136
2213.70  41.045  24.136
2214.20  41.045  24.105
2214.70  41.045  24.105
2215.20  40.965  24.136
2215.70  41.045  24.167
2216.20  41.045  24.105
2216.70  41.126  24.105
2217.20  40.965  24.136
2217.70  41.045  24.136
2218.20  41.045  24.105
2218.70  40.965  24.074
2219.20  41.045  24.136
2219.70  41.126  24.105
2220.20  41.045  24.136
2220.70  41.126  24.136
2221.20  41.045  24.136
2221.70  41.126  24.105
2222.20  41.126  24.105
2222.70  41.045  24.136
2223.20  40.965  24.136
2223.70  41.045  24.136
2224.20  41.045  24.136
2224.70  41.045  24.136
2225.20  41.045  24.136
2225.70  41.045  24.105
2226.20  41.126  24.105
2226.70  41.045  24.167
2227.20  41.045  24.167
2227.70  41.045  24.136
2228.20  41.045  24.136
2228.70  41.045  24.136
2229.20  41.126  24.105
2229.70  41.045  24.136
2230.20  41.045  24.105
2230.70  41.045  24.136
2231.20  41.126  24.136
2231.70  40.965  24.105
2232.20  41.126  24.043
2232.70  40.965  24.105
2233.20  41.126  24.105
2233.70  41.045  24.136
2234.20  41.045  24.136
2234.70  40.965  24.105
2235.20  41.126  24.136
2235.70  41.045  24.105
2236.20  41.045  24.105
2236.70  41.126  24.105
2237.20  41.126  24.105
2237.70  41.126  24.105
2238.20  41.045  24.136
2238.70  41.045  24.136
2239.20  41.045  24.136
2239.70  41.045  24.105
2240.20  41.045  24.105
2240.70  41.045  24.136
2241.20  41.045  24.136
2241.70  41.045  24.136
2242.20  41.126  24.167
2242.70  41.045  24.105
2243.20  41.045  24.136
2243.70  41.045  24.136
2244.20  41.045  24.105
2244.70  40.965  24.105
2245.20  41.045  24.136
2245.70  41.045  24.105
2246.20  41.045  24.167
2246.70  41.045  24.136
2247.20  41.045  24.136
2247.70  41.126  24.167
2248.20  41.045  24.074
2248.70  41.045  24.105
2249.20  41.045  24.105
2249.70  41.126  24.136
2250.20  41.045  24.105
2250.70  40.965  24.105
2251.20  41.045  24.105
2251.70  41.045  24.136
2252.20  41.045  24.105
2252.70  41.126  24.136
2253.20  41.045  24.105
2253.70  40.965  24.136
2254.20  41.126  24.105
2254.70  40.965  24.105
2255.20  41.045  24.167
2255.70  41.045  24.105
2256.20  41.045  24.136
2256.70  41.045  24.136
2257.20  41.045  24.136
2257.70  41.126  24.136
2258.20  41.045  24.136
2258.70  41.126  24.136
2259.20  41.045  24.136
2259.70  41.045  24.136
2260.20  40.965  24.136
2260.70  41.126  24.074
2261.20  41.045  24.105
2261.70  41.126  24.136
2262.20  41.045  24.074
2262.70  41.045  24.136
2263.20  41.126  24.136
2263.70  41.045  24.105
2264.20  41.045  24.136
2264.70  40.965  24.105
2265.20  41.206  24.136
2265.70  41.126  24.105
2266.20  40.965  24.136
2266.70  41.126  24.136
2267.20  41.045  24.136
2267.70  41.126  24.136
2268.20  41.045  24.105
2268.70  41.045  24.136
2269.20  41.045  24.136
2269.70  41.126  24.136
2270.20  41.045  24.136
2270.70  41.126  24.105
2271.20  41.206  24.074
2271.70  41.126  24.136
2272.20  41.126  24.136
2272.70  41.045  24.136
2273.20  41.126  24.136
2273.70  41.045  24.105
2274.20  41.045  24.167
2274.70  41.045  24.136
2275.20  40.965  24.105
2275.70  41.126  24.136
2276.20  41.045  24.136
2276.70  40.965  24.136
2277.20  41.126  24.167
2277.70  41.126  24.136
2278.20  41.045  24.136
2278.70  41.126  24.105
2279.20  41.045  24.136
2279.70  41.126  24.105
2280.20  41.126  24.136
2280.70  41.045  24.136
2281.20  41.126  24.136
2281.70  41.045  24.105
2282.20  41.126  24.136
2282.70  41.126  24.105
2283.20  41.126  24.136
2283.70  41.126  24.167
2284.20  41.045  24.136
2284.70  41.126  24.136
2285.20  41.045  24.197
2285.70  41.045  24.105
2286.20  41.126  24.136
2286.70  41.126  24.167
2287.20  41.045  24.136
2287.70  41.126  24.197
2288.20  41.045  24.136
2288.70  41.206  24.136
2289.20  41.126  24.136
2289.70  41.045  24.136
2290.20  41.126  24.136
2290.70  41.045  24.167
2291.20  41.287  24.136
2291.70  41.126  24.167
2292.20  41.045  24.136
2292.70  40.965  24.167
2293.20  41.126  24.167
2293.70  41.126  24.167
2294.20  41.126  24.167
2294.70  41.045  24.197
2295.20  41.126  24.136
2295.70  41.126  24.167
2296.20  41.126  24.136
2296.70  41.126  24.136
2297.20  41.126  24.167
2297.70  41.126  24.136
2298.20  41.126  24.105
2298.70  41.206  24.167
2299.20  41.126  24.197
2299.70  41.126  24.136
2300.20  41.045  24.167
2300.70  41.045  24.136
2301.20  41.126  24.136
2301.70  41.126  24.136
2302.20  41.126  24.228
2302.70  41.126  24.136
2303.20  41.126  24.136
2303.70  41.126  24.136
2304.20  41.126  24.105
2304.70  41.045  24.136
2305.20  41.126  24.167
2305.70  41.126  24.167
2306.20  41.045  24.167
2306.70  41.126  24.136
2307.20  41.126  24.136
2307.70  41.126  24.136
2308.20  41.206  24.167
2308.70  41.126  24.105
2309.20  41.206  24.167
2309.70  41.287  24.105
2310.20  41.126  24.136
2310.70  41.126  24.167
2311.20  41.126  24.105
2311.70  41.206  24.136
2312.20  41.126  24.105
2312.70  41.045  24.167
2313.20  41.126  24.136
2313.70  41.206  24.136
2314.20  41.126  24.136
2314.70  41.126  24.136
2315.20  41.045  24.167
2315.70  41.126  24.136
2316.20  41.206  24.197
2316.70  41.126  24.167
2317.20  41.206  24.136
2317.70  41.126  24.167
2318.20  41.126  24.136
2318.70  41.126  24.167
2319.20  41.126  24.167
2319.70  41.126  24.167
2320.20  41.126  24.136
2320.70  41.045  24.136
2321.20  41.126  24.136
2321.71  41.045  24.167
2322.21  41.045  24.105
2322.71  41.126  24.136
2323.21  41.126  24.167
2323.71  41.126  24.136
2324.21  41.126  24.167
2324.71  41.126  24.167
2325.21  41.126  24.167
2325.71  41.126  24.167
2326.21  41.206  24.105
2326.71  41.206  24.136
2327.21  41.126  24.136
2327.71  41.126  24.167
2328.21  41.126  24.136
2328.71  41.126  24.136
2329.21  41.206  24.136
2329.71  41.206  24.105
2330.21  41.126  24.167
2330.71  41.126  24.167
2331.21  41.126  24.167
2331.71  41.126  24.167
2332.21  41.126  24.197
2332.71  41.206  24.167
2333.21  41.206  24.136
2333.71  41.206  24.136
2334.21  41.206  24.136
2334.71  41.126  24.167
2335.21  41.206  24.136
2335.71  41.126  24.167
2336.21  41.126  24.167
2336.71  41.045  24.167
2337.21  41.206  24.136
2337.71  41.206  24.136
2338.21  41.206  24.167
2338.71  41.206  24.136
2339.21  41.206  24.105
2339.71  41.206  24.136
2340.21  41.045  24.167
2340.71  41.206  24.167
2341.21  41.126  24.167
2341.71  41.126  24.136
2342.21  41.126  24.167
2342.71  41.126  24.167
2343.21  41.126  24.167
2343.71  41.287  24.167
2344.21  41.206  24.136
2344.71  41.126  24.136
2345.21  41.206  24.136
2345.71  41.206  24.136
2346.21  41.206  24.167
2346.71  41.206  24.136
2347.21  41.206  24.105
2347.71  41.206  24.136
2348.21  41.206  24.136
2348.71  41.126  24.136
2349.21  41.126  24.167
2349.71  41.206  24.167
2350.21  41.206  24.167
2350.71  41.126  24.167
2351.21  41.126  24.136
2351.71  41.126  24.136
2352.21  41.126  24.136
2352.71  41.126  24.136
2353.21  41.287  24.167
2353.71  41.206  24.105
2354.21  41.045  24.136
2354.71  41.206  24.136
2355.21  41.126  24.136
2355.71  41.206  24.167
2356.21  41.206  24.167
2356.71  41.126  24.167
2357.21  41.206  24.167
2357.71  41.126  24.136
2358.21  41.206  24.136
2358.71  41.045  24.167
2359.21  41.206  24.197
2359.71  41.126  24.136
2360.21  41.126  24.197
2360.71  41.126  24.136
2361.21  41.126  24.167
2361.71  41.287  24.136
2362.21  41.126  24.167
2362.71  41.126  24.167
2363.21  41.206  24.136
2363.71  41.126  24.167
2364.21  41.206  24.197
2364.71  41.206  24.167
2365.21  41.126  24.167
2365.71  41.206  24.105
2366.21  41.126  24.167
2366.71  41.206  24.136
2367.21  41.045  24.167
2367.71  41.287  24.136
2368.21  41.287  24.105
2368.71  41.126  24.136
2369.21  41.126  24.167
2369.71  41.206  24.167
2370.21  41.206  24.167
2370.71  41.126  24.167
2371.21  41.126  24.197
2371.71  41.126  24.136
2372.21  41.206  24.197
2372.71  41.206  24.167
2373.21  41.206  24.167
2373.71  41.206  24.167
2374.21  41.206  24.167
2374.71  41.206  24.167
2375.21  41.126  24.197
2375.71  41.126  24.167
2376.21  41.368  24.167
2376.71  41.126  24.167
2377.21  41.287  24.105
2377.71  41.206  24.136
2378.21  41.206  24.167
2378.71  41.206  24.136
2379.21  41.206  24.167
2379.71  41.206  24.167
2380.21  41.206  24.197
2380.71  41.287  24.167
2381.21  41.206  24.136
2381.71  41.206  24.197
2382.21  41.287  24.167
2382.71  41.287  24.167
2383.21  41.206  24.167
2383.71  41.206  24.167
2384.21  41.287  24.136
2384.71  41.287  24.167
2385.21  41.126  24.167
2385.71  41.206  24.136
2386.21  41.206  24.167
2386.71  41.126  24.167
2387.21  41.287  24.136
2387.71  41.287  24.167
2388.21  41.126  24.167
2388.71  41.206  24.167
2389.21  41.126  24.167
2389.71  41.206  24.167
2390.21  41.126  24.136
2390.71  41.287  24.136
2391.21  41.206  24.197
2391.71  41.206  24.167
2392.21  41.206  24.136
2392.71  41.045  24.197
2393.21  41.206  24.167
2393.71  41.126  24.167
2394.21  41.206  24.167
2394.71  41.287  24.167
2395.21  41.206  24.167
2395.71  41.206  24.167
2396.21  41.206  24.167
2396.71  41.206  24.167
2397.21  41.206  24.167
2397.71  41.206  24.136
2398.21  41.287  24.136
2398.71  41.206  24.167
2399.21  41.206  24.197
2399.71  41.126  24.167
2400.21  41.287  24.136
2400.71  41.287  24.167
2401.21  41.126  24.197
2401.71  41.206  24.167
2402.21  41.206  24.167
2402.71  41.206  24.167
2403.21  41.206  24.105
2403.71  41.206  24.136
2404.21  41.206  24.136
2404.71  41.126  24.228
2405.21  41.206  24.167
2405.71  41.206  24.167
2406.21  41.126  24.136
2406.71  41.287  24.167
2407.21  41.206  24.167
2407.71  41.287  24.167
2408.21  41.206  24.167
2408.71  41.287  24.167
2409.21  41.206  24.167
2409.71  41.287  24.167
2410.21  41.206  24.167
2410.71  41.206  24.167
2411.21  41.126  24.167
2411.71  41.287  24.167
2412.21  41.206  24.167
2412.71  41.287  24.167
2413.21  41.206  24.136
2413.71  41.287  24.167
2414.21  41.206  24.167
2414.71  41.287  24.197
2415.21  41.045  24.228
2415.71  41.206  24.167
2416.21  41.287  24.167
2416.71  41.287  24.197
2417.21  41.287  24.105
2417.71  41.206  24.167
2418.21  41.368  24.167
2418.71  41.206  24.167
2419.21  41.287  24.167
2419.71  41.206  24.167
2420.21  41.368  24.228
2420.71  41.206  24.167
2421.21  41.206  24.167
2421.71  41.287  24.167
2422.21  41.287  24.197
2422.71  41.287  24.136
2423.21  41.206  24.167
2423.72  41.206  24.197
2424.22  41.287  24.197
2424.72  41.287  24.167
2425.22  41.126  24.167
2425.72  41.368  24.167
2426.22  41.206  24.167
2426.72  41.287  24.167
2427.22  41.287  24.167
2427.72  41.206  24.167
2428.22  41.206  24.197
2428.72  41.206  24.136
2429.22  41.287  24.167
2429.72  41.206  24.167
2430.22  41.287  24.167
2430.72  41.206  24.167
2431.22  41.287  24.197
2431.72  41.287  24.167
2432.22  41.287  24.167
2432.72  41.206  24.167
2433.22  41.206  24.167
2433.72  41.287  24.167
2434.22  41.206  24.167
2434.72  41.368  24.167
2435.22  41.206  24.167
2435.72  41.448  24.228
2436.22  41.287  24.167
2436.72  41.287  24.197
2437.22  41.287  24.167
2437.72  41.287  24.167
2438.22  41.287  24.167
2438.72  41.448  24.167
2439.22  41.287  24.197
2439.72  41.287  24.167
2440.22  41.206  24.167
2440.72  41.287  24.197
2441.22  41.368  24.136
2441.72  41.206  24.167
2442.22  41.126  24.197
2442.72  41.368  24.197
2443.22  41.287  24.167
2443.72  41.287  24.197
2444.22  41.448  24.197
2444.72  41.287  24.197
2445.22  41.206  24.167
2445.72  41.287  24.105
2446.22  41.287  24.167
2446.72  41.206  24.167
2447.22  41.206  24.167
2447.72  41.287  24.197
2448.22  41.287  24.197
2448.72  41.287  24.167
2449.22  41.206  24.136
2449.72  41.368  24.197
2450.22  41.287  24.167
2450.72  41.287  24.167
2451.22  41.287  24.167
2451.72  41.206  24.136
2452.22  41.287  24.167
2452.72  41.287  24.197
2453.22  41.287  24.167
2453.72  41.287  24.136
2454.22  41.287  24.136
2454.72  41.206  24.167
2455.22  41.287  24.167
2455.72  41.287  24.167
2456.22  41.287  24.197
2456.72  41.287  24.167
2457.22  41.287  24.197
2457.72  41.287  24.197
2458.22  41.287  24.167
2458.72  41.368  24.197
2459.22  41.206  24.197
2459.72  41.287  24.228
2460.22  41.368  24.167
2460.72  41.368  24.197
2461.22  41.206  24.197
2461.72  41.287  24.136
2462.22  41.287  24.197
2462.72  41.287  24.197
2463.22  41.287  24.197
2463.72  41.287  24.197
2464.22  41.287  24.167
2464.72  41.287  24.197
2465.22  41.287  24.197
2465.72  41.287  24.167
2466.22  41.287  24.197
2466.72  41.287  24.167
2467.22  41.287  24.167
2467.72  41.206  24.167
2468.22  41.368  24.167
2468.72  41.287  24.167
2469.22  41.448  24.167
2469.72  41.287  24.197
2470.22  41.206  24.167
2470.72  41.287  24.167
2471.22  41.206  24.197
2471.72  41.206  24.167
2472.22  41.287  24.228
2472.72  41.287  24.167
2473.22  41.287  24.197
2473.72  41.287  24.197
2474.22  41.368  24.167
2474.72  41.287  24.228
2475.22  41.287  24.167
2475.72  41.287  24.167
2476.22  41.287  24.167
2476.72  41.287  24.197
2477.22  41.287  24.197
2477.72  41.368  24.197
2478.22  41.287  24.197
2478.72  41.126  24.228
2479.22  41.368  24.136
2479.72  41.206  24.197
2480.22  41.206  24.197
2480.72  41.206  24.197
2481.22  41.287  24.167
2481.72  41.368  24.197
2482.22  41.287  24.228
2482.72  41.287  24.197
2483.22  41.287  24.197
2483.72  41.287  24.167
2484.22  41.368  24.197
2484.72  41.287  24.136
2485.22  41.126  24.197
2485.72  41.206  24.136
2486.22  41.368  24.167
2486.72  41.287  24.197
2487.22  41.206  24.197
2487.72  41.287  24.197
2488.22  41.287  24.197
2488.72  41.287  24.197
2489.22  41.206  24.197
2489.72  41.206  24.197
2490.22  41.287  24.167
2490.72  41.287  24.167
2491.22  41.368  24.197
2491.72  41.287  24.197
2492.22  41.368  24.197
2492.72  41.287  24.197
2493.22  41.287  24.167
2493.72  41.368  24.197
2494.22  41.287  24.197
2494.72  41.287  24.197
2495.22  41.287  24.197
2495.72  41.287  24.167
2496.22  41.287  24.228
2496.72  41.287  24.167
2497.22  41.287  24.197
2497.72  41.287  24.197
2498.22  41.368  24.197
2498.72  41.368  24.228
2499.22  41.287  24.197
2499.72  41.287  24.167
2500.22  41.287  24.197
2500.72  41.287  24.228
2501.22  41.206  24.197
2501.72  41.287  24.197
