   2.00  24.949  24.197
   2.50  24.923  24.197
   3.00  24.923  24.228
   3.50  24.923  24.167
   4.00  24.923  24.167
   4.50  24.949  24.167
   5.00  24.923  24.167
   5.50  24.897  24.167
   6.00  24.897  24.197
   6.50  24.871  24.167
   7.00  24.923  24.167
   7.50  24.923  24.136
   8.00  24.897  24.197
   8.50  24.897  24.136
   9.00  24.923  24.197
   9.50  24.897  24.167
  10.00  24.923  24.167
  10.50  24.923  24.167
  11.00  24.897  24.167
  11.50  24.897  24.167
  12.00  24.897  24.167
  12.50  24.949  24.167
  13.00  24.949  24.197
  13.50  24.949  24.167
  14.00  24.975  24.197
  14.50  24.975  24.197
  15.00  25.005  24.197
  15.50  25.005  24.167
  16.00  25.005  24.167
  16.50  25.005  24.167
  17.00  25.114  24.167
  17.50  25.114  24.197
  18.00  25.222  24.167
  18.50  25.222  24.167
  19.00  25.330  24.197
  19.50  25.330  24.197
  20.00  25.330  24.197
  20.50  25.438  24.167
  21.00  25.547  24.228
  21.50  25.438  24.136
  22.00  25.330  24.197
  22.50  25.547  24.167
  23.00  25.547  24.167
  23.50  25.438  24.167
  24.00  25.655  24.197
  24.50  25.655  24.167
  25.00  25.763  24.167
  25.50  25.871  24.197
  26.00  25.871  24.197
  26.50  25.871  24.197
  27.00  25.980  24.136
  27.50  25.763  24.167
  28.00  25.980  24.167
  28.50  25.980  24.167
  29.00  25.980  24.197
  29.50  25.980  24.167
  30.00  25.980  24.197
  30.50  25.980  24.197
  31.00  25.980  24.167
  31.50  26.088  24.197
  32.00  26.088  24.167
  32.50  26.088  24.136
  33.00  26.088  24.167
  33.50  26.088  24.136
  34.00  26.196  24.167
  34.50  26.196  24.167
  35.00  26.196  24.167
  35.50  26.196  24.167
  36.00  26.196  24.197
  36.50  26.196  24.167
  37.00  26.304  24.197
  37.50  26.304  24.167
  38.00  26.304  24.167
  38.50  26.413  24.167
  39.00  26.413  24.197
  39.50  26.521  24.197
  40.00  26.413  24.197
  40.50  26.521  24.136
  41.00  26.521  24.197
  41.50  26.304  24.167
  42.00  26.521  24.167
  42.50  26.521  24.167
  43.00  26.521  24.228
  43.50  26.521  24.197
  44.00  26.629  24.136
  44.50  26.629  24.167
  45.00  26.629  24.197
  45.50  26.629  24.197
  46.00  26.737  24.167
  46.50  26.629  24.167
  47.00  26.737  24.167
  47.51  26.629  24.228
  48.01  26.737  24.167
  48.51  26.846  24.197
  49.01  26.737  24.197
  49.51  26.846  24.167
  50.01  26.846  24.197
  50.51  27.062  24.167
  51.01  26.954  24.136
  51.51  26.954  24.167
  52.01  26.954  24.197
  52.51  26.954  24.167
  53.01  26.846  24.197
  53.51  26.954  24.167
  54.01  27.062  24.167
  54.51  27.170  24.136
  55.01  27.170  24.167
  55.51  26.954  24.197
  56.01  26.954  24.167
  56.51  27.062  24.197
  57.01  27.062  24.167
  57.51  27.170  24.167
  58.01  27.170  24.197
  58.51  27.062  24.167
  59.01  27.170  24.167
  59.51  27.170  24.167
  60.01  27.170  24.197
  60.51  27.279  24.167
  61.01  27.279  24.167
  61.51  27.170  24.197
  62.01  27.279  24.197
  62.51  27.170  24.197
  63.01  27.387  24.136
  63.51  27.279  24.167
  64.01  27.279  24.167
  64.51  27.279  24.197
  65.01  27.170  24.197
  65.51  27.387  24.197
  66.01  27.387  24.228
  66.51  27.495  24.197
  67.01  27.387  24.228
  67.51  27.495  24.167
  68.01  27.495  24.167
  68.51  27.603  24.197
  69.01  27.387  24.167
  69.51  27.495  24.197
  70.01  27.387  24.197
  70.51  27.387  24.197
  71.01  27.495  24.167
  71.51  27.603  24.197
  72.01  27.603  24.197
  72.51  27.603  24.197
  73.01  27.712  24.197
  73.51  27.495  24.167
  74.01  27.603  24.167
  74.51  27.712  24.197
  75.01  27.712  24.197
  75.51  27.712  24.167
  76.01  27.712  24.197
  76.51  27.603  24.228
  77.01  27.820  24.228
  77.51  27.712  24.167
  78.01  27.820  24.167
  78.51  27.820  24.167
  79.01  27.820  24.197
  79.51  27.928  24.167
  80.01  27.820  24.197
  80.51  27.820  24.167
  81.01  27.820  24.197
  81.51  27.820  24.197
  82.01  27.928  24.136
  82.51  27.928  24.197
  83.01  27.928  24.167
  83.51  27.820  24.228
  84.01  27.928  24.167
  84.51  27.820  24.197
  85.01  27.928  24.167
  85.51  28.036  24.167
  86.01  28.036  24.167
  86.51  27.928  24.167
  87.01  27.928  24.136
  87.51  28.036  24.167
  88.01  28.036  24.167
  88.51  28.036  24.167
  89.01  28.036  24.167
  89.51  28.036  24.167
  90.01  28.253  24.197
  90.51  28.036  24.167
  91.01  28.036  24.197
  91.51  28.145  24.167
  92.01  28.145  24.167
  92.51  28.145  24.167
  93.01  28.145  24.167
  93.51  28.145  24.197
  94.01  28.145  24.167
  94.51  28.253  24.136
  95.01  28.253  24.197
  95.51  28.253  24.197
  96.01  28.253  24.228
  96.51  28.253  24.167
  97.01  28.253  24.167
  97.51  28.253  24.167
  98.01  28.253  24.167
  98.51  28.361  24.167
  99.01  28.361  24.074
  99.51  28.361  24.167
 100.01  28.253  24.167
 100.51  28.361  24.136
 101.01  28.469  24.105
 101.51  28.578  24.167
 102.01  28.578  24.167
 102.51  28.361  24.167
 103.01  28.578  24.167
 103.51  28.469  24.167
 104.01  28.469  24.197
 104.51  28.469  24.167
 105.01  28.469  24.167
 105.51  28.469  24.197
 106.01  28.469  24.197
 106.51  28.469  24.167
 107.01  28.578  24.167
 107.51  28.578  24.167
 108.01  28.578  24.167
 108.51  28.578  24.136
 109.01  28.686  24.167
 109.51  28.578  24.167
 110.01  28.686  24.136
 110.51  28.469  24.167
 111.01  28.469  24.167
 111.51  28.578  24.167
 112.01  28.686  24.167
 112.51  28.578  24.167
 113.01  28.578  24.167
 113.51  28.686  24.167
 114.01  28.686  24.136
 114.51  28.794  24.167
 115.01  28.902  24.197
 115.51  28.794  24.167
 116.01  28.794  24.167
 116.51  28.794  24.167
 117.01  28.794  24.167
 117.51  28.794  24.167
 118.01  28.902  24.167
 118.51  28.902  24.197
 119.01  28.902  24.197
 119.51  28.902  24.197
 120.01  28.902  24.197
 120.51  28.902  24.197
 121.01  28.902  24.167
 121.51  28.902  24.136
 122.01  29.011  24.167
 122.51  29.011  24.136
 123.01  29.119  24.167
 123.51  29.011  24.167
 124.01  29.011  24.167
 124.51  29.011  24.167
 125.01  29.011  24.167
 125.51  29.119  24.136
 126.01  28.902  24.167
 126.51  28.794  24.167
 127.01  29.119  24.167
 127.51  29.119  24.167
 128.01  29.119  24.167
 128.51  29.119  24.167
 129.01  29.011  24.167
 129.51  29.119  24.167
 130.01  29.227  24.167
 130.51  29.227  24.197
 131.01  29.227  24.167
 131.51  29.227  24.105
 132.01  29.227  24.197
 132.51  29.227  24.167
 133.01  29.227  24.136
 133.51  29.119  24.167
 134.01  29.444  24.197
 134.51  29.227  24.197
 135.01  29.227  24.167
 135.51  29.335  24.167
 136.01  29.335  24.167
 136.51  29.335  24.197
 137.01  29.335  24.197
 137.51  29.335  24.167
 138.01  29.335  24.167
 138.51  29.335  24.167
 139.01  29.335  24.197
 139.51  29.335  24.136
 140.01  29.335  24.136
 140.51  29.335  24.167
 141.01  29.444  24.197
 141.51  29.444  24.136
 142.01  29.444  24.136
 142.51  29.227  24.167
 143.01  29.552  24.197
 143.51  29.444  24.197
 144.01  29.552  24.197
 144.51  29.552  24.167
 145.01  29.552  24.197
 145.51  29.552  24.167
 146.01  29.552  24.167
 146.51  29.660  24.167
 147.01  29.660  24.167
 147.51  29.552  24.197
 148.01  29.552  24.136
 148.51  29.552  24.197
 149.01  29.552  24.167
 149.51  29.660  24.197
 150.01  29.660  24.259
 150.51  29.552  24.197
 151.01  29.660  24.167
 151.51  29.660  24.197
 152.01  29.552  24.136
 152.51  29.660  24.136
 153.01  29.660  24.167
 153.51  29.768  24.136
 154.01  29.768  24.167
 154.51  29.660  24.167
 155.01  29.768  24.167
 155.51  29.768  24.167
 156.01  29.768  24.167
 156.51  29.768  24.167
 157.01  29.877  24.167
 157.51  29.660  24.167
 158.01  29.985  24.167
 158.51  29.877  24.167
 159.01  29.877  24.167
 159.51  29.768  24.167
 160.01  29.877  24.197
 160.51  29.985  24.197
 161.01  29.877  24.197
 161.51  29.877  24.136
 162.01  30.101  24.167
 162.51  29.985  24.197
 163.01  29.877  24.167
 163.51  29.877  24.197
 164.01  29.985  24.167
 164.51  29.985  24.197
 165.01  29.985  24.197
 165.51  29.985  24.167
 166.01  29.877  24.167
 166.51  29.985  24.167
 167.01  29.985  24.167
 167.51  29.985  24.167
 168.01  29.985  24.167
 168.51  29.985  24.167
 169.01  29.985  24.136
 169.51  30.101  24.197
 170.01  29.985  24.167
 170.51  30.101  24.167
 171.01  30.101  24.197
 171.52  30.101  24.167
 172.02  30.217  24.167
 172.52  30.101  24.167
 173.02  30.217  24.167
 173.52  30.334  24.167
 174.02  30.334  24.197
 174.52  30.217  24.197
 175.02  30.217  24.136
 175.52  30.217  24.167
 176.02  30.217  24.228
 176.52  30.334  24.167
 177.02  30.334  24.167
 177.52  30.334  24.167
 178.02  30.334  24.167
 178.52  30.334  24.167
 179.02  30.334  24.167
 179.52  30.334  24.167
 180.02  30.334  24.228
 180.52  30.334  24.167
 181.02  30.334  24.167
 181.52  30.217  24.197
 182.02  30.334  24.167
 182.52  30.334  24.167
 183.02  30.334  24.167
 183.52  30.451  24.197
 184.02  30.334  24.197
 184.52  30.451  24.167
 185.02  30.217  24.167
 185.52  30.451  24.167
 186.02  30.451  24.167
 186.52  30.568  24.167
 187.02  30.451  24.167
 187.52  30.451  24.167
 188.02  30.334  24.167
 188.52  30.451  24.167
 189.02  30.568  24.167
 189.52  30.568  24.167
 190.02  30.568  24.167
 190.52  30.568  24.167
 191.02  30.568  24.167
 191.52  30.568  24.167
 192.02  30.568  24.167
 192.52  30.919  24.167
 193.02  30.568  24.167
 193.52  30.802  24.167
 194.02  30.451  24.167
 194.52  30.685  24.136
 195.02  30.568  24.167
 195.52  30.802  24.197
 196.02  30.568  24.167
 196.52  30.568  24.167
 197.02  30.568  24.167
 197.52  30.802  24.167
 198.02  30.685  24.167
 198.52  30.802  24.167
 199.02  30.802  24.167
 199.52  30.919  24.197
 200.02  30.802  24.167
 200.52  30.802  24.167
 201.02  30.802  24.197
 201.52  30.802  24.167
 202.02  30.919  24.167
 202.52  30.802  24.197
 203.02  30.802  24.167
 203.52  30.802  24.197
 204.02  30.802  24.167
 204.52  30.919  24.167
 205.02  31.036  24.167
 205.52  30.802  24.197
 206.02  31.036  24.167
 206.52  30.919  24.167
 207.02  30.919  24.167
 207.52  30.919  24.197
 208.02  30.919  24.197
 208.52  30.919  24.167
 209.02  31.036  24.167
 209.52  31.036  24.167
 210.02  30.919  24.167
 210.52  31.036  24.167
 211.02  31.152  24.167
 211.52  31.036  24.167
 212.02  30.919  24.197
 212.52  31.036  24.167
 213.02  31.036  24.167
 213.52  31.036  24.167
 214.02  31.036  24.228
 214.52  31.036  24.167
 215.02  30.919  24.167
 215.52  30.919  24.197
 216.02  31.152  24.136
 216.52  31.152  24.167
 217.02  31.036  24.167
 217.52  31.152  24.167
 218.02  30.919  24.136
 218.52  31.152  24.167
 219.02  31.036  24.167
 219.52  31.152  24.197
 220.02  31.152  24.136
 220.52  31.152  24.167
 221.02  31.269  24.197
 221.52  31.386  24.136
 222.02  31.386  24.167
 222.52  30.568  24.167
 223.02  31.269  24.167
 223.52  31.386  24.167
 224.02  31.269  24.167
 224.52  31.269  24.167
 225.02  31.269  24.167
 225.52  31.269  24.167
 226.02  31.386  24.167
 226.52  31.386  24.167
 227.02  31.386  24.136
 227.52  31.386  24.167
 228.02  31.269  24.167
 228.52  31.386  24.167
 229.02  31.386  24.136
 229.52  31.386  24.105
 230.02  31.503  24.167
 230.52  31.269  24.167
 231.02  31.386  24.167
 231.52  31.269  24.136
 232.02  31.386  24.136
 232.52  31.386  24.136
 233.02  31.503  24.167
 233.52  31.620  24.136
 234.02  31.503  24.197
 234.52  31.620  24.167
 235.02  31.620  24.167
 235.52  31.386  24.136
 236.02  31.503  24.167
 236.52  31.620  24.167
 237.02  31.620  24.136
 237.52  31.620  24.167
 238.02  31.620  24.197
 238.52  31.620  24.197
 239.02  31.620  24.167
 239.52  31.620  24.167
 240.02  31.620  24.167
 240.52  31.620  24.167
 241.02  31.620  24.197
 241.52  31.620  24.167
 242.02  31.503  24.167
 242.52  31.620  24.167
 243.02  31.620  24.136
 243.52  31.503  24.167
 244.02  31.503  24.167
 244.52  31.620  24.167
 245.02  31.737  24.167
 245.52  31.854  24.136
 246.02  31.737  24.167
 246.52  31.737  24.167
 247.02  31.620  24.197
 247.52  31.737  24.197
 248.02  31.737  24.105
 248.52  31.737  24.136
 249.02  31.737  24.197
 249.52  31.737  24.197
 250.02  31.737  24.197
 250.52  31.737  24.167
 251.02  31.854  24.167
 251.52  31.971  24.167
 252.02  31.854  24.167
 252.52  31.971  24.167
 253.02  31.854  24.167
 253.52  31.737  24.167
 254.02  31.854  24.167
 254.52  31.737  24.167
 255.02  32.087  24.197
 255.52  31.971  24.197
 256.02  31.854  24.197
 256.52  31.971  24.197
 257.02  31.737  24.167
 257.52  31.971  24.197
 258.02  32.087  24.167
 258.52  31.971  24.167
 259.02  31.971  24.228
 259.52  32.204  24.167
 260.02  32.087  24.197
 260.52  31.971  24.197
 261.02  31.971  24.197
 261.52  31.971  24.167
 262.02  31.971  24.197
 262.52  31.971  24.167
 263.02  32.087  24.167
 263.52  32.087  24.197
 264.02  32.204  24.197
 264.52  32.087  24.167
 265.02  32.087  24.167
 265.52  32.087  24.136
 266.02  31.971  24.167
 266.52  31.971  24.167
 267.02  32.438  24.228
 267.52  32.204  24.228
 268.02  32.087  24.136
 268.52  32.087  24.167
 269.02  32.087  24.228
 269.52  32.204  24.197
 270.02  32.204  24.167
 270.52  32.204  24.259
 271.02  32.204  24.167
 271.52  32.204  24.136
 272.02  32.087  24.136
 272.52  32.321  24.167
 273.02  32.204  24.136
 273.52  32.087  24.167
 274.02  32.438  24.167
 274.52  32.321  24.167
 275.02  32.204  24.197
 275.52  32.321  24.136
 276.02  32.321  24.167
 276.52  32.321  24.167
 277.02  32.321  24.167
 277.52  32.438  24.136
 278.02  32.204  24.167
 278.52  32.555  24.167
 279.02  32.321  24.167
 279.52  32.321  24.167
 280.02  32.321  24.136
 280.52  32.321  24.136
 281.02  32.321  24.167
 281.52  32.438  24.136
 282.02  32.321  24.167
 282.52  32.321  24.259
 283.02  32.438  24.167
 283.52  32.438  24.197
 284.02  32.438  24.136
 284.52  32.789  24.167
 285.03  32.438  24.167
 285.53  32.438  24.167
 286.03  32.438  24.228
 286.53  32.555  24.197
 287.03  32.555  24.136
 287.53  32.438  24.167
 288.03  32.438  24.197
 288.53  32.321  24.136
 289.03  32.438  24.167
 289.53  32.555  24.167
 290.03  32.321  24.167
 290.53  32.555  24.167
 291.03  32.321  24.167
 291.53  32.438  24.167
 292.03  32.555  24.197
 292.53  32.555  24.167
 293.03  32.555  24.136
 293.53  32.555  24.167
 294.03  32.555  24.197
 294.53  32.321  24.167
 295.03  32.555  24.136
 295.53  32.672  24.136
 296.03  32.672  24.136
 296.53  32.555  24.167
 297.03  32.672  24.136
 297.53  32.789  24.167
 298.03  32.555  24.167
 298.53  32.555  24.167
 299.03  32.789  24.167
 299.53  32.672  24.197
 300.03  32.672  24.136
 300.53  32.672  24.167
 301.03  32.672  24.167
 301.53  32.672  24.167
 302.03  32.555  24.167
 302.53  32.672  24.167
 303.03  32.672  24.197
 303.53  32.672  24.167
 304.03  32.906  24.167
 304.53  32.789  24.136
 305.03  32.789  24.167
 305.53  32.789  24.167
 306.03  32.906  24.197
 306.53  33.022  24.136
 307.03  32.906  24.167
 307.53  33.022  24.167
 308.03  33.022  24.136
 308.53  32.789  24.167
 309.03  32.789  24.167
 309.53  32.789  24.228
 310.03  32.906  24.167
 310.53  32.789  24.136
 311.03  32.906  24.136
 311.53  32.906  24.197
 312.03  32.906  24.167
 312.53  32.906  24.167
 313.03  33.022  24.167
 313.53  32.789  24.167
 314.03  33.022  24.167
 314.53  33.022  24.259
 315.03  32.906  24.167
 315.53  32.906  24.167
 316.03  32.789  24.197
 316.53  33.022  24.167
 317.03  32.789  24.197
 317.53  32.906  24.136
 318.03  32.906  24.167
 318.53  33.022  24.197
 319.03  33.022  24.167
 319.53  33.022  24.197
 320.03  32.906  24.167
 320.53  33.022  24.167
 321.03  33.022  24.136
 321.53  33.022  24.167
 322.03  33.022  24.167
 322.53  33.022  24.167
 323.03  33.022  24.197
 323.53  33.139  24.167
 324.03  33.022  24.105
 324.53  33.022  24.197
 325.03  33.139  24.228
 325.53  33.139  24.167
 326.03  33.022  24.136
 326.53  33.022  24.167
 327.03  33.022  24.197
 327.53  33.256  24.167
 328.03  33.022  24.136
 328.53  33.256  24.228
 329.03  33.256  24.167
 329.53  33.139  24.167
 330.03  33.373  24.197
 330.53  33.139  24.167
 331.03  33.139  24.197
 331.53  33.022  24.136
 332.03  33.256  24.197
 332.53  33.256  24.167
 333.03  33.256  24.136
 333.53  33.256  24.197
 334.03  33.139  24.167
 334.53  33.139  24.167
 335.03  33.256  24.167
 335.53  33.256  24.167
 336.03  33.256  24.197
 336.53  33.256  24.167
 337.03  33.256  24.167
 337.53  33.256  24.167
 338.03  33.373  24.136
 338.53  33.373  24.167
 339.03  33.490  24.167
 339.53  33.256  24.136
 340.03  33.256  24.167
 340.53  33.373  24.167
 341.03  33.256  24.197
 341.53  33.373  24.136
 342.03  33.373  24.167
 342.53  33.373  24.167
 343.03  33.373  24.136
 343.53  33.256  24.167
 344.03  33.490  24.167
 344.53  33.490  24.259
 345.03  33.490  24.167
 345.53  33.373  24.167
 346.03  33.490  24.136
 346.53  33.490  24.136
 347.03  33.373  24.167
 347.53  33.373  24.167
 348.03  33.490  24.167
 348.53  33.490  24.259
 349.03  33.373  24.167
 349.53  33.490  24.167
 350.03  33.607  24.167
 350.53  33.490  24.167
 351.03  33.490  24.197
 351.53  33.490  24.167
 352.03  33.373  24.167
 352.53  33.490  24.228
 353.03  33.607  24.167
 353.53  33.490  24.167
 354.03  33.607  24.167
 354.53  33.490  24.197
 355.03  33.607  24.197
 355.53  33.724  24.167
 356.03  33.724  24.167
 356.53  33.490  24.167
 357.03  33.490  24.167
 357.53  33.607  24.197
 358.03  33.607  24.105
 358.53  33.607  24.167
 359.03  33.607  24.167
 359.53  33.607  24.167
 360.03  33.724  24.167
 360.53  33.607  24.167
 361.03  33.490  24.136
 361.53  33.490  24.167
 362.03  33.607  24.197
 362.53  33.724  24.136
 363.03  33.724  24.167
 363.53  33.724  24.197
 364.03  33.607  24.136
 364.53  33.490  24.167
 365.03  33.724  24.167
 365.53  33.490  24.167
 366.03  33.607  24.197
 366.53  33.607  24.197
 367.03  33.724  24.167
 367.53  33.724  24.167
 368.03  33.841  24.167
 368.53  33.841  24.136
 369.03  33.841  24.167
 369.53  33.841  24.167
 370.03  33.724  24.197
 370.53  33.724  24.167
 371.03  33.724  24.197
 371.53  33.841  24.167
 372.03  33.841  24.228
 372.53  33.841  24.167
 373.03  33.607  24.136
 373.53  33.841  24.197
 374.03  33.724  24.167
 374.53  33.724  24.197
 375.03  33.841  24.197
 375.53  33.841  24.167
 376.03  33.957  24.167
 376.53  33.957  24.167
 377.03  33.841  24.197
 377.53  33.957  24.167
 378.03  33.957  24.197
 378.53  33.957  24.197
 379.03  34.074  24.197
 379.53  34.074  24.167
 380.03  33.841  24.197
 380.53  33.957  24.136
 381.03  33.957  24.136
 381.53  33.957  24.167
 382.03  33.957  24.136
 382.53  33.841  24.167
 383.03  33.957  24.197
 383.53  34.074  24.167
 384.03  34.074  24.197
 384.53  34.191  24.167
 385.03  33.724  24.136
 385.53  33.957  24.197
 386.03  33.957  24.228
 386.53  33.957  24.197
 387.04  33.957  24.136
 387.54  34.074  24.167
 388.04  33.957  24.167
 388.54  34.074  24.167
 389.04  33.957  24.167
 389.54  34.308  24.167
 390.04  33.957  24.197
 390.54  33.957  24.167
 391.04  34.074  24.167
 391.54  34.191  24.167
 392.04  33.957  24.136
 392.54  33.957  24.167
 393.04  34.074  24.197
 393.54  34.074  24.197
 394.04  34.074  24.136
 394.54  34.074  24.167
 395.04  34.074  24.167
 395.54  34.191  24.197
 396.04  34.191  24.197
 396.54  34.191  24.136
 397.04  34.191  24.167
 397.54  34.074  24.197
 398.04  34.191  24.197
 398.54  34.308  24.167
 399.04  34.191  24.167
 399.54  34.074  24.167
 400.04  34.074  24.136
 400.54  34.191  24.136
 401.04  34.191  24.167
 401.54  34.191  24.167
 402.04  34.191  24.167
 402.54  34.308  24.167
 403.04  34.074  24.167
 403.54  34.191  24.136
 404.04  34.074  24.167
 404.54  34.191  24.197
 405.04  34.074  24.197
 405.54  34.191  24.197
 406.04  34.308  24.136
 406.54  34.308  24.167
 407.04  34.191  24.197
 407.54  34.191  24.197
 408.04  34.308  24.167
 408.54  34.308  24.167
 409.04  34.191  24.197
 409.54  34.191  24.167
 410.04  34.191  24.197
 410.54  34.191  24.167
 411.04  34.425  24.197
 411.54  34.425  24.167
 412.04  34.425  24.136
 412.54  34.308  24.228
 413.04  34.425  24.167
 413.54  34.308  24.167
 414.04  34.425  24.167
 414.54  34.425  24.197
 415.04  34.425  24.136
 415.54  34.542  24.167
 416.04  34.425  24.167
 416.54  34.425  24.167
 417.04  34.425  24.136
 417.54  34.659  24.197
 418.04  34.542  24.167
 418.54  34.425  24.167
 419.04  34.425  24.136
 419.54  34.542  24.259
 420.04  34.542  24.197
 420.54  34.542  24.197
 421.04  34.425  24.167
 421.54  34.425  24.167
 422.04  34.425  24.167
 422.54  34.542  24.136
 423.04  34.425  24.197
 423.54  34.425  24.136
 424.04  34.425  24.167
 424.54  34.425  24.167
 425.04  34.542  24.167
 425.54  34.542  24.167
 426.04  34.542  24.167
 426.54  34.542  24.167
 427.04  34.659  24.197
 427.54  34.542  24.167
 428.04  34.542  24.136
 428.54  34.659  24.167
 429.04  34.776  24.167
 429.54  34.776  24.167
 430.04  34.542  24.197
 430.54  34.659  24.167
 431.04  34.542  24.197
 431.54  34.659  24.136
 432.04  34.542  24.167
 432.54  34.308  24.167
 433.04  34.542  24.167
 433.54  34.542  24.167
 434.04  34.542  24.167
 434.54  34.659  24.167
 435.04  34.542  24.167
 435.54  34.542  24.197
 436.04  34.776  24.136
 436.54  34.542  24.197
 437.04  34.542  24.167
 437.54  34.776  24.136
 438.04  34.659  24.167
 438.54  34.659  24.197
 439.04  34.659  24.167
 439.54  34.776  24.136
 440.04  34.542  24.197
 440.54  34.659  24.228
 441.04  34.659  24.167
 441.54  34.659  24.167
 442.04  34.542  24.167
 442.54  34.659  24.167
 443.04  34.776  24.197
 443.54  34.776  24.167
 444.04  34.776  24.136
 444.54  34.892  24.167
 445.04  34.776  24.197
 445.54  34.776  24.136
 446.04  34.776  24.167
 446.54  34.892  24.197
 447.04  34.892  24.228
 447.54  34.892  24.167
 448.04  34.776  24.197
 448.54  34.659  24.167
 449.04  34.659  24.167
 449.54  34.776  24.167
 450.04  34.776  24.167
 450.54  34.659  24.167
 451.04  34.892  24.136
 451.54  34.776  24.228
 452.04  34.776  24.197
 452.54  34.542  24.197
 453.04  34.776  24.197
 453.54  34.892  24.167
 454.04  34.776  24.167
 454.54  34.776  24.167
 455.04  34.892  24.167
 455.54  34.892  24.167
 456.04  34.892  24.197
 456.54  34.892  24.167
 457.04  34.892  24.197
 457.54  34.776  24.197
 458.04  34.776  24.197
 458.54  34.776  24.167
 459.04  35.005  24.167
 459.54  34.892  24.136
 460.04  34.892  24.167
 460.54  35.005  24.197
 461.04  35.005  24.167
 461.54  34.892  24.167
 462.04  34.892  24.197
 462.54  35.005  24.197
 463.04  35.005  24.167
 463.54  35.069  24.167
 464.04  35.005  24.167
 464.54  35.005  24.197
 465.04  34.892  24.167
 465.54  35.005  24.167
 466.04  35.005  24.167
 466.54  35.005  24.167
 467.04  35.005  24.197
 467.54  35.005  24.167
 468.04  34.776  24.136
 468.54  35.005  24.167
 469.04  35.005  24.167
 469.54  35.005  24.167
 470.04  35.133  24.197
 470.54  35.069  24.167
 471.04  35.005  24.167
 471.54  35.005  24.167
 472.04  35.069  24.167
 472.54  35.069  24.167
 473.04  35.005  24.136
 473.54  35.005  24.197
 474.04  35.005  24.197
 474.54  35.005  24.167
 475.04  35.005  24.197
 475.54  35.069  24.167
 476.04  35.069  24.167
 476.54  35.005  24.197
 477.04  35.069  24.167
 477.54  35.069  24.167
 478.04  35.069  24.228
 478.54  35.069  24.197
 479.04  35.005  24.167
 479.54  35.069  24.167
 480.04  35.069  24.167
 480.54  35.069  24.197
 481.04  34.892  24.167
 481.54  35.133  24.167
 482.04  35.069  24.167
 482.54  35.005  24.167
 483.04  35.133  24.167
 483.54  35.069  24.136
 484.04  35.133  24.197
 484.54  35.069  24.197
 485.04  35.069  24.167
 485.54  35.133  24.197
 486.04  35.069  24.197
 486.54  35.069  24.167
 487.04  35.197  24.167
 487.54  35.133  24.197
 488.04  35.069  24.197
 488.54  35.197  24.228
 489.04  35.133  24.167
 489.54  35.133  24.136
 490.04  35.069  24.228
 490.54  35.133  24.167
 491.04  35.133  24.197
 491.54  35.133  24.197
 492.04  35.197  24.167
 492.54  35.069  24.197
 493.04  35.133  24.136
 493.54  35.133  24.228
 494.04  35.197  24.167
 494.54  35.325  24.228
 495.04  35.197  24.167
 495.54  35.197  24.136
 496.04  35.261  24.167
 496.54  35.069  24.167
 497.04  35.197  24.167
 497.54  35.133  24.167
 498.04  35.197  24.167
 498.54  35.133  24.167
 499.04  35.197  24.167
 499.54  35.197  24.228
 500.05  35.197  24.167
 500.55  35.197  24.197
 501.05  35.261  24.197
 501.55  35.197  24.228
 502.05  35.261  24.167
 502.55  35.197  24.167
 503.05  35.197  24.197
 503.55  35.197  24.197
 504.05  35.197  24.197
 504.55  35.197  24.197
 505.05  35.261  24.197
 505.55  35.325  24.197
 506.05  35.197  24.228
 506.55  35.261  24.197
 507.05  35.261  24.167
 507.55  35.261  24.197
 508.05  35.197  24.197
 508.55  35.261  24.167
 509.05  35.197  24.197
 509.55  35.261  24.228
 510.05  35.261  24.197
 510.55  35.261  24.197
 511.05  35.261  24.197
 511.55  35.261  24.167
 512.05  35.197  24.167
 512.55  35.261  24.167
 513.05  35.325  24.167
 513.55  35.261  24.167
 514.05  35.261  24.167
 514.55  35.325  24.167
 515.05  35.325  24.197
 515.55  35.261  24.167
 516.05  35.261  24.197
 516.55  35.261  24.167
 517.05  35.197  24.136
 517.55  35.133  24.197
 518.05  35.133  24.167
 518.55  35.389  24.197
 519.05  35.261  24.167
 519.55  35.261  24.167
 520.05  35.261  24.197
 520.55  35.325  24.167
 521.05  35.325  24.167
 521.55  35.261  24.136
 522.05  35.261  24.197
 522.55  35.325  24.197
 523.05  35.325  24.167
 523.55  35.453  24.167
 524.05  35.197  24.197
 524.55  35.261  24.167
 525.05  35.325  24.197
 525.55  35.389  24.197
 526.05  35.389  24.167
 526.55  35.325  24.167
 527.05  35.325  24.167
 527.55  35.325  24.197
 528.05  35.325  24.167
 528.55  35.389  24.167
 529.05  35.389  24.136
 529.55  35.325  24.167
 530.05  35.389  24.167
 530.55  35.261  24.197
 531.05  35.325  24.167
 531.55  35.389  24.167
 532.05  35.325  24.167
 532.55  35.325  24.167
 533.05  35.389  24.167
 533.55  35.453  23.982
 534.05  35.325  24.228
 534.55  35.325  24.197
 535.05  35.389  24.136
 535.55  35.389  24.228
 536.05  35.453  24.197
 536.55  35.389  24.167
 537.05  35.325  24.167
 537.55  35.389  24.290
 538.05  35.389  24.197
 538.55  35.389  24.167
 539.05  35.453  24.136
 539.55  35.389  24.167
 540.05  35.325  24.167
 540.55  35.389  24.197
 541.05  35.389  24.228
 541.55  35.389  24.167
 542.05  35.453  24.167
 542.55  35.453  24.136
 543.05  35.453  24.197
 543.55  35.389  24.197
 544.05  35.453  24.167
 544.55  35.389  24.197
 545.05  35.389  24.167
 545.55  35.517  24.197
 546.05  35.453  24.167
 546.55  35.389  24.197
 547.05  35.453  24.197
 547.55  35.453  24.167
 548.05  35.325  24.167
 548.55  35.453  24.197
 549.05  35.453  24.167
 549.55  35.453  24.197
 550.05  35.453  24.167
 550.55  35.453  24.136
 551.05  35.453  24.167
 551.55  35.453  24.167
 552.05  35.453  24.228
 552.55  35.517  24.197
 553.05  35.517  24.167
 553.55  35.325  24.228
 554.05  35.453  24.197
 554.55  35.453  24.136
 555.05  35.453  24.197
 555.55  35.453  24.167
 556.05  35.517  24.167
 556.55  35.517  24.167
 557.05  35.453  24.197
 557.55  35.581  24.197
 558.05  35.517  24.197
 558.55  35.389  24.136
 559.05  35.453  24.197
 559.55  35.389  24.167
 560.05  35.581  24.167
 560.55  35.517  24.197
 561.05  35.517  24.167
 561.55  35.517  24.197
 562.05  35.517  24.167
 562.55  35.581  24.167
 563.05  35.581  24.167
 563.55  35.517  24.167
 564.05  35.581  24.197
 564.55  35.581  24.197
 565.05  35.581  24.197
 565.55  35.581  24.167
 566.05  35.581  24.167
 566.55  35.517  24.167
 567.05  35.581  24.197
 567.55  35.517  24.197
 568.05  35.581  24.167
 568.55  35.581  24.167
 569.05  35.581  24.167
 569.55  35.581  24.197
 570.05  35.517  24.197
 570.55  35.581  24.167
 571.05  35.581  24.197
 571.55  35.581  24.228
 572.05  35.517  24.197
 572.55  35.517  24.197
 573.05  35.645  24.228
 573.55  35.645  24.228
 574.05  35.389  24.167
 574.55  35.517  24.167
 575.05  35.581  24.167
 575.55  35.581  24.167
 576.05  35.645  24.197
 576.55  35.581  24.197
 577.05  35.581  24.228
 577.55  35.709  24.259
 578.05  35.645  24.197
 578.55  35.581  24.228
 579.05  35.645  24.167
 579.55  35.645  24.197
 580.05  35.645  24.197
 580.55  35.517  24.167
 581.05  35.517  24.197
 581.55  35.709  24.197
 582.05  35.709  24.197
 582.55  35.645  24.197
 583.05  35.645  24.167
 583.55  35.645  24.197
 584.05  35.645  24.197
 584.55  35.645  24.197
 585.05  35.645  24.136
 585.55  35.581  24.228
 586.05  35.645  24.197
 586.55  35.645  24.167
 587.05  35.581  24.167
 587.55  35.645  24.228
 588.05  35.645  24.167
 588.55  35.773  24.167
 589.05  35.709  24.167
 589.55  35.581  24.167
 590.05  35.645  24.197
 590.55  35.645  24.197
 591.05  35.645  24.228
 591.55  35.709  24.197
 592.05  35.645  24.197
 592.55  35.581  24.167
 593.05  35.645  24.197
 593.55  35.709  24.197
 594.05  35.645  24.228
 594.55  35.709  24.197
 595.05  35.709  24.167
 595.55  35.645  24.197
 596.05  35.645  24.197
 596.55  35.709  24.197
 597.05  35.709  24.197
 597.55  35.709  24.136
 598.05  35.709  24.167
 598.55  35.645  24.167
 599.05  35.709  24.136
 599.55  35.709  24.228
 600.05  35.709  24.167
 600.55  35.645  24.228
 601.05  35.773  24.167
 601.55  35.709  24.228
 602.05  35.709  24.197
 602.55  35.645  24.197
 603.05  35.773  24.197
 603.55  35.773  24.228
 604.05  35.709  24.197
 604.55  35.709  24.197
 605.05  35.645  24.228
 605.55  35.773  24.197
 606.05  35.709  24.228
 606.55  35.773  24.167
 607.05  35.645  24.197
 607.55  35.709  24.197
 608.05  35.773  24.197
 608.55  35.773  24.197
 609.05  35.837  24.197
 609.55  35.773  24.197
 610.05  35.773  24.197
 610.55  35.773  24.197
 611.05  35.773  24.197
 611.55  35.837  24.167
 612.05  35.773  24.197
 612.55  35.773  24.167
 613.05  35.709  24.197
 613.55  35.773  24.197
 614.05  35.773  24.228
 614.55  35.709  24.167
 615.05  35.837  24.197
 615.55  35.773  24.197
 616.05  35.773  24.167
 616.55  35.837  24.197
 617.05  35.837  24.197
 617.55  35.709  24.197
 618.05  35.773  24.167
 618.55  35.773  24.197
 619.05  35.773  24.228
 619.55  35.709  24.197
 620.05  35.773  24.228
 620.55  35.837  24.197
 621.05  35.773  24.197
 621.55  35.773  24.197
 622.05  35.773  24.167
 622.55  35.837  24.197
 623.05  35.709  24.197
 623.55  35.773  24.197
 624.05  35.901  24.228
 624.56  35.773  24.197
 625.06  35.901  24.197
 625.56  35.261  24.197
 626.06  35.773  24.228
 626.56  35.773  24.228
 627.06  35.773  24.197
 627.56  35.837  24.167
 628.06  35.901  24.197
 628.56  35.901  24.167
 629.06  35.837  24.167
 629.56  35.837  24.197
 630.06  35.837  24.228
 630.56  35.837  24.197
 631.06  35.837  24.197
 631.56  35.901  24.197
 632.06  35.901  24.228
 632.56  35.901  24.167
 633.06  35.901  24.197
 633.56  35.965  24.197
 634.06  35.837  24.197
 634.56  35.837  24.197
 635.06  35.837  24.228
 635.56  35.965  24.197
 636.06  35.901  24.228
 636.56  35.837  24.167
 637.06  35.901  24.197
 637.56  35.965  24.197
 638.06  35.901  24.197
 638.56  35.837  24.197
 639.06  35.901  24.197
 639.56  35.837  24.167
 640.06  35.837  24.167
 640.56  35.901  24.197
 641.06  35.901  24.197
 641.56  35.901  24.167
 642.06  35.837  24.197
 642.56  35.901  24.167
 643.06  35.837  24.197
 643.56  35.837  24.197
 644.06  35.837  24.228
 644.56  35.901  24.197
 645.06  35.837  24.197
 645.56  35.901  24.197
 646.06  35.901  24.228
 646.56  35.901  24.167
 647.06  35.965  24.167
 647.56  35.901  24.197
 648.06  35.965  24.197
 648.56  35.837  24.197
 649.06  35.965  24.197
 649.56  35.901  24.197
 650.06  35.965  24.197
 650.56  35.965  24.197
 651.06  35.965  24.167
 651.56  35.901  24.197
 652.06  35.965  24.228
 652.56  36.029  24.197
 653.06  35.965  24.197
 653.56  35.965  24.197
 654.06  35.965  24.197
 654.56  35.901  24.197
 655.06  35.965  24.197
 655.56  35.965  24.197
 656.06  35.965  24.197
 656.56  36.029  24.197
 657.06  35.965  24.197
 657.56  36.029  24.197
 658.06  36.029  24.197
 658.56  36.029  24.197
 659.06  35.965  24.197
 659.56  35.965  24.259
 660.06  35.901  24.197
 660.56  35.965  24.197
 661.06  35.965  24.228
 661.56  35.965  24.167
 662.06  35.965  24.167
 662.56  35.965  24.197
 663.06  35.965  24.259
 663.56  36.029  24.259
 664.06  36.029  24.197
 664.56  36.093  24.167
 665.06  36.029  24.197
 665.56  36.029  24.228
 666.06  35.965  24.136
 666.56  35.965  24.197
 667.06  35.965  24.228
 667.56  36.029  24.136
 668.06  36.093  24.167
 668.56  35.965  24.228
 669.06  36.029  24.197
 669.56  36.029  24.259
 670.06  36.093  24.197
 670.56  36.029  24.167
 671.06  36.029  24.167
 671.56  36.093  24.228
 672.06  35.965  24.167
 672.56  36.093  24.197
 673.06  36.029  24.197
 673.56  36.093  24.167
 674.06  35.965  24.167
 674.56  36.029  24.197
 675.06  36.029  24.228
 675.56  36.157  24.197
 676.06  36.029  24.197
 676.56  36.093  24.228
 677.06  36.093  24.197
 677.56  36.029  24.197
 678.06  36.029  24.197
 678.56  35.965  24.167
 679.06  36.029  24.197
 679.56  36.093  24.197
 680.06  36.093  24.197
 680.56  36.029  24.197
 681.06  36.093  24.197
 681.56  35.965  24.228
 682.06  36.029  24.197
 682.56  36.093  24.167
 683.06  36.221  24.197
 683.56  36.029  24.197
 684.06  36.157  24.167
 684.56  36.029  24.197
 685.06  36.093  24.197
 685.56  36.029  24.197
 686.06  36.029  24.197
 686.56  36.093  24.228
 687.06  36.157  24.197
 687.56  36.029  24.167
 688.06  36.157  24.167
 688.56  36.093  24.197
 689.06  36.029  24.197
 689.56  36.093  24.167
 690.06  36.093  24.197
 690.56  36.093  24.197
 691.06  36.093  24.197
 691.56  36.093  24.167
 692.06  36.029  24.197
 692.56  36.093  24.228
 693.06  36.093  24.197
 693.56  36.093  24.197
 694.06  36.093  24.167
 694.56  36.093  24.197
 695.06  36.157  24.197
 695.56  36.029  24.197
 696.06  36.157  24.197
 696.56  36.029  24.136
 697.06  36.157  24.197
 697.56  36.093  24.167
 698.06  36.157  24.197
 698.56  36.029  24.197
 699.06  36.093  24.228
 699.56  36.093  24.167
 700.06  36.157  24.228
 700.56  36.093  24.167
 701.06  36.157  24.167
 701.56  36.093  24.167
 702.06  36.157  24.197
 702.56  36.157  24.228
 703.06  36.157  24.197
 703.56  36.221  24.228
 704.06  36.285  24.197
 704.56  36.157  24.228
 705.06  36.093  24.197
 705.56  36.157  24.197
 706.06  36.157  24.167
 706.56  36.221  24.228
 707.06  36.221  24.228
 707.56  36.285  24.228
 708.06  36.221  24.197
 708.56  36.157  24.228
 709.06  36.221  24.228
 709.56  36.093  24.167
 710.06  36.093  24.167
 710.56  36.221  24.197
 711.06  36.221  24.197
 711.56  36.221  24.197
 712.06  36.157  24.197
 712.56  36.157  24.197
 713.06  36.157  24.197
 713.56  36.285  24.228
 714.06  36.221  24.167
 714.56  36.157  24.228
 715.06  36.157  24.197
 715.56  36.221  24.259
 716.06  36.285  24.167
 716.56  36.221  24.197
 717.06  36.221  24.197
 717.56  36.221  24.197
 718.06  36.157  24.197
 718.56  36.157  24.197
 719.06  36.093  24.228
 719.56  36.221  24.074
 720.06  36.221  24.197
 720.56  36.285  24.197
 721.06  36.221  24.228
 721.56  36.221  24.167
 722.06  36.221  24.228
 722.56  36.221  24.197
 723.06  36.221  24.228
 723.56  36.285  24.197
 724.06  36.157  24.197
 724.56  36.221  24.197
 725.06  36.221  24.197
 725.56  36.285  24.167
 726.06  36.221  24.197
 726.57  36.349  24.197
 727.07  36.157  24.228
 727.57  36.221  24.197
 728.07  36.221  24.228
 728.57  36.221  24.197
 729.07  36.285  24.197
 729.57  36.221  24.197
 730.07  36.285  24.197
 730.57  36.093  24.197
 731.07  36.221  24.228
 731.57  36.221  24.197
 732.07  36.285  24.197
 732.57  36.221  24.197
 733.07  36.221  24.197
 733.57  36.221  24.197
 734.07  36.285  24.197
 734.57  36.285  24.197
 735.07  36.221  24.197
 735.57  36.285  24.167
 736.07  36.221  24.228
 736.57  36.221  24.197
 737.07  36.157  24.228
 737.57  36.285  24.197
 738.07  36.349  24.197
 738.57  36.285  24.228
 739.07  36.349  24.197
 739.57  36.157  24.197
 740.07  36.349  24.228
 740.57  36.221  24.197
 741.07  36.285  24.259
 741.57  36.285  24.167
 742.07  36.221  24.228
 742.57  36.285  24.197
 743.07  36.285  24.197
 743.57  36.285  24.228
 744.07  36.349  24.228
 744.57  36.349  24.197
 745.07  36.349  24.228
 745.57  36.285  24.197
 746.07  36.541  24.228
 746.57  36.413  24.228
 747.07  36.285  24.228
 747.57  36.349  24.197
 748.07  36.285  24.259
 748.57  36.349  24.197
 749.07  36.349  24.197
 749.57  36.349  24.228
 750.07  36.349  24.197
 750.57  36.413  24.197
 751.07  36.285  24.197
 751.57  36.285  24.197
 752.07  36.285  24.197
 752.57  36.349  24.228
 753.07  36.285  24.197
 753.57  36.349  24.197
 754.07  36.349  24.197
 754.57  36.349  24.228
 755.07  36.285  24.228
 755.57  36.285  24.197
 756.07  36.285  24.197
 756.57  36.349  24.197
 757.07  36.285  24.228
 757.57  36.349  24.197
 758.07  36.413  24.228
 758.57  36.349  24.228
 759.07  36.413  24.197
 759.57  36.413  24.197
 760.07  36.349  24.197
 760.57  36.285  24.228
 761.07  36.285  24.197
 761.57  36.285  24.197
 762.07  36.285  24.167
 762.57  36.349  24.197
 763.07  36.413  24.197
 763.57  36.413  24.197
 764.07  36.349  24.197
 764.57  36.413  24.197
 765.07  36.413  24.167
 765.57  36.349  24.167
 766.07  36.285  24.228
 766.57  36.413  24.197
 767.07  36.349  24.197
 767.57  36.349  24.197
 768.07  36.413  24.228
 768.57  36.413  24.197
 769.07  36.413  24.197
 769.57  36.413  24.197
 770.07  36.413  24.197
 770.57  36.349  24.228
 771.07  36.349  24.228
 771.57  36.413  24.197
 772.07  36.413  24.228
 772.57  36.413  24.228
 773.07  36.477  24.228
 773.57  36.477  24.197
 774.07  36.413  24.228
 774.57  36.413  24.197
 775.07  36.413  24.228
 775.57  36.349  24.197
 776.07  36.413  24.228
 776.57  36.285  24.228
 777.07  36.413  24.228
 777.57  36.477  24.228
 778.07  36.349  24.228
 778.57  36.413  24.228
 779.07  36.413  24.197
 779.57  36.477  24.167
 780.07  36.413  24.228
 780.57  36.349  24.197
 781.07  36.413  24.228
 781.57  36.477  24.197
 782.07  36.413  24.167
 782.57  36.413  24.197
 783.07  36.349  24.228
 783.57  36.477  24.228
 784.07  36.413  24.228
 784.57  36.477  24.228
 785.07  36.477  24.197
 785.57  36.349  24.043
 786.07  36.477  24.197
 786.57  36.477  24.197
 787.07  36.413  24.197
 787.57  36.413  24.228
 788.07  36.413  24.197
 788.57  35.709  24.321
 789.07  36.477  24.197
 789.57  36.477  24.167
 790.07  36.413  24.259
 790.57  36.477  24.228
 791.07  36.413  24.197
 791.57  36.477  24.228
 792.07  36.413  24.197
 792.57  36.477  24.167
 793.07  36.477  24.228
 793.57  36.477  24.259
 794.07  36.413  24.197
 794.57  36.477  24.228
 795.07  36.541  24.228
 795.57  36.541  24.197
 796.07  36.477  24.197
 796.57  36.477  24.228
 797.07  36.349  24.197
 797.57  36.477  24.259
 798.07  36.413  24.197
 798.57  36.477  24.228
 799.07  36.605  24.228
 799.57  36.413  24.228
 800.07  36.477  24.197
 800.57  36.413  24.228
 801.07  36.477  24.228
 801.57  36.477  24.259
 802.07  36.541  24.228
 802.57  36.477  24.259
 803.07  36.477  24.228
 803.57  36.541  24.167
 804.07  36.541  24.197
 804.57  36.541  24.228
 805.07  36.477  24.197
 805.57  36.477  24.197
 806.07  36.413  24.259
 806.57  36.413  24.259
 807.07  36.477  24.197
 807.57  36.477  24.197
 808.07  36.541  24.197
 808.57  36.477  24.167
 809.07  36.541  24.228
 809.57  36.477  24.197
 810.07  36.413  24.228
 810.57  36.541  24.228
 811.07  36.541  24.167
 811.57  36.477  24.197
 812.07  36.541  24.197
 812.57  36.605  24.197
 813.07  36.541  24.228
 813.57  36.541  24.228
 814.07  36.605  24.259
 814.57  36.477  24.228
 815.07  36.541  24.197
 815.57  36.541  24.228
 816.07  36.477  24.228
 816.57  36.477  24.228
 817.07  36.605  24.228
 817.57  36.605  24.259
 818.07  36.477  24.228
 818.57  36.541  24.228
 819.07  36.541  24.228
 819.57  36.541  24.197
 820.07  36.605  24.228
 820.57  36.541  24.228
 821.07  36.605  24.197
 821.57  36.605  24.259
 822.07  36.541  24.197
 822.57  36.605  24.228
 823.07  36.541  24.197
 823.57  36.541  24.228
 824.07  36.541  24.197
 824.57  36.477  24.228
 825.07  36.605  24.197
 825.57  36.477  24.228
 826.07  36.669  24.228
 826.57  36.541  24.197
 827.07  36.669  24.228
 827.57  36.605  24.197
 828.07  36.797  24.228
 828.57  36.605  24.228
 829.07  36.605  24.228
 829.57  36.605  24.197
 830.07  36.541  24.228
 830.57  36.605  24.228
 831.07  36.605  24.228
 831.57  36.669  24.228
 832.07  36.669  24.228
 832.57  36.605  24.197
 833.07  36.605  24.228
 833.57  36.605  24.259
 834.07  36.605  24.228
 834.57  36.605  24.228
 835.07  36.605  24.228
 835.57  36.541  24.197
 836.07  36.541  24.228
 836.57  36.541  24.228
 837.07  36.605  24.228
 837.57  36.669  24.228
 838.07  36.541  24.197
 838.57  36.605  24.197
 839.07  36.669  24.197
 839.58  36.605  24.228
 840.08  36.669  24.197
 840.58  36.605  24.228
 841.08  36.605  24.228
 841.58  36.605  24.228
 842.08  36.605  24.228
 842.58  36.541  24.228
 843.08  36.605  24.228
 843.58  36.669  24.228
 844.08  36.605  24.197
 844.58  36.541  24.167
 845.08  36.605  24.228
 845.58  36.669  24.228
 846.08  36.605  24.197
 846.58  36.541  24.228
 847.08  36.605  24.259
 847.58  36.669  24.228
 848.08  36.605  24.228
 848.58  36.541  24.228
 849.08  36.669  24.259
 849.58  36.733  24.228
 850.08  36.669  24.259
 850.58  36.669  24.197
 851.08  36.605  24.197
 851.58  36.605  24.197
 852.08  36.669  24.228
 852.58  36.541  24.228
 853.08  36.669  24.197
 853.58  36.925  24.228
 854.08  36.733  24.197
 854.58  36.605  24.228
 855.08  36.669  24.167
 855.58  36.605  24.228
 856.08  36.733  24.259
 856.58  36.669  24.259
 857.08  36.733  24.197
 857.58  36.669  24.259
 858.08  36.669  24.228
 858.58  36.733  24.259
 859.08  36.605  24.228
 859.58  36.733  24.228
 860.08  36.669  24.228
 860.58  36.669  24.228
 861.08  36.605  24.228
 861.58  36.669  24.259
 862.08  36.669  24.136
 862.58  36.669  24.228
 863.08  36.669  24.259
 863.58  36.797  24.259
 864.08  36.669  24.228
 864.58  36.669  24.197
 865.08  36.733  24.197
 865.58  36.605  24.228
 866.08  36.733  24.167
 866.58  36.733  24.197
 867.08  36.797  24.228
 867.58  36.733  24.197
 868.08  36.733  24.228
 868.58  36.669  24.228
 869.08  36.733  24.228
 869.58  36.733  24.228
 870.08  36.733  24.259
 870.58  36.797  24.228
 871.08  36.669  24.197
 871.58  36.797  24.228
 872.08  36.541  24.228
 872.58  36.669  24.228
 873.08  36.669  24.167
 873.58  36.669  24.228
 874.08  36.669  24.228
 874.58  36.797  24.197
 875.08  36.733  24.259
 875.58  36.733  24.259
 876.08  36.605  24.228
 876.58  36.733  24.259
 877.08  36.669  24.228
 877.58  36.733  24.197
 878.08  36.733  24.228
 878.58  36.797  24.228
 879.08  36.733  24.259
 879.58  36.797  24.197
 880.08  36.733  24.197
 880.58  36.733  24.228
 881.08  36.733  24.167
 881.58  36.733  24.228
 882.08  36.861  24.228
 882.58  36.733  24.228
 883.08  36.797  24.228
 883.58  36.797  24.228
 884.08  36.669  24.228
 884.58  36.733  24.228
 885.08  36.797  24.197
 885.58  36.733  24.197
 886.08  36.797  24.228
 886.58  36.733  24.259
 887.08  36.733  24.228
 887.58  36.733  24.228
 888.08  36.733  24.228
 888.58  36.733  24.259
 889.08  36.733  24.228
 889.58  36.797  24.197
 890.08  36.669  24.228
 890.58  36.861  24.259
 891.08  36.797  24.228
 891.58  36.797  24.228
 892.08  36.669  24.197
 892.58  36.733  24.197
 893.08  36.797  24.197
 893.58  36.797  24.290
 894.08  36.797  24.197
 894.58  36.797  24.259
 895.08  36.797  24.197
 895.58  36.797  24.197
 896.08  36.861  24.197
 896.58  36.733  24.197
 897.08  36.733  24.228
 897.58  36.733  24.228
 898.08  36.733  24.167
 898.58  36.733  24.228
 899.08  36.861  24.228
 899.58  36.797  24.228
 900.08  36.797  24.228
 900.58  36.733  24.228
 901.08  36.797  24.228
 901.58  36.797  24.228
 902.08  36.861  24.228
 902.58  36.797  24.197
 903.08  36.733  24.259
 903.58  36.669  24.228
 904.08  36.797  24.197
 904.58  36.861  24.228
 905.08  36.861  24.259
 905.58  36.797  24.259
 906.08  36.797  24.228
 906.58  36.797  24.197
 907.08  36.797  24.228
 907.58  36.797  24.259
 908.08  36.861  24.228
 908.58  36.797  24.197
 909.08  36.669  24.228
 909.58  36.797  24.259
 910.08  36.861  24.228
 910.58  36.733  24.259
 911.08  36.797  24.290
 911.58  36.797  24.197
 912.08  36.861  24.197
 912.58  36.925  24.290
 913.08  36.861  24.228
 913.58  36.797  24.228
 914.08  36.861  24.228
 914.58  36.733  24.197
 915.08  36.861  24.259
 915.58  36.861  24.228
 916.08  36.797  24.259
 916.58  36.797  24.197
 917.08  36.797  24.321
 917.58  36.797  24.228
 918.08  36.861  24.197
 918.58  36.733  24.259
 919.08  36.861  24.228
 919.58  36.733  24.228
 920.08  36.861  24.259
 920.58  36.861  24.228
 921.08  36.861  24.228
 921.58  36.861  24.228
 922.08  36.861  24.259
 922.58  36.925  24.197
 923.08  36.797  24.197
 923.58  36.925  24.197
 924.08  36.925  24.197
 924.58  36.861  24.228
 925.08  36.861  24.259
 925.58  36.861  24.228
 926.08  36.797  24.228
 926.58  36.861  24.197
 927.08  36.861  24.197
 927.58  36.925  24.228
 928.08  36.925  24.259
 928.58  36.861  24.228
 929.08  36.861  24.167
 929.58  36.797  24.228
 930.08  36.925  24.259
 930.58  36.797  24.197
 931.08  36.861  24.228
 931.58  36.989  24.259
 932.08  36.925  24.259
 932.58  37.053  24.228
 933.08  36.925  24.259
 933.58  36.861  24.259
 934.08  36.861  24.228
 934.58  36.861  24.259
 935.08  36.861  24.259
 935.58  36.925  24.228
 936.08  36.925  24.259
 936.58  36.925  24.228
 937.08  36.861  24.259
 937.58  36.925  24.228
 938.08  36.925  24.228
 938.58  36.989  24.228
 939.08  36.925  24.228
 939.58  36.861  24.197
 940.08  36.925  24.228
 940.58  37.053  24.197
 941.08  36.925  24.228
 941.58  36.925  24.259
 942.08  36.989  24.259
 942.58  36.925  24.259
 943.08  36.925  24.197
 943.58  37.053  24.228
 944.08  36.861  24.259
 944.58  36.925  24.259
 945.08  36.925  24.259
 945.58  36.925  24.197
 946.08  36.861  24.228
 946.58  36.925  24.259
 947.08  36.925  24.228
 947.58  36.925  24.290
 948.08  36.861  24.259
 948.58  36.925  24.228
 949.08  36.989  24.259
 949.58  37.053  24.228
 950.08  36.925  24.197
 950.58  36.925  24.228
 951.08  36.925  24.259
 951.58  36.925  24.259
 952.08  36.989  24.259
 952.58  36.925  24.197
 953.09  37.053  24.259
 953.59  36.989  24.259
 954.09  36.925  24.259
 954.59  36.989  24.259
 955.09  36.989  24.228
 955.59  36.989  24.167
 956.09  36.925  24.228
 956.59  36.925  24.228
 957.09  36.925  24.228
 957.59  36.989  24.259
 958.09  36.989  24.228
 958.59  36.989  24.259
 959.09  36.925  24.228
 959.59  36.989  24.259
 960.09  36.989  24.228
 960.59  36.925  24.228
 961.09  36.925  24.228
 961.59  36.925  24.228
 962.09  36.989  24.228
 962.59  36.989  24.228
 963.09  37.053  24.167
 963.59  36.925  24.259
 964.09  36.861  24.259
 964.59  36.989  24.290
 965.09  36.925  24.228
 965.59  36.989  24.290
 966.09  36.989  24.228
 966.59  36.925  24.228
 967.09  36.989  24.228
 967.59  36.925  24.259
 968.09  36.989  24.228
 968.59  36.989  24.228
 969.09  36.989  24.259
 969.59  36.989  24.228
 970.09  37.053  24.228
 970.59  36.925  24.197
 971.09  36.989  24.228
 971.59  36.989  24.228
 972.09  36.989  24.259
 972.59  37.053  24.259
 973.09  36.989  24.259
 973.59  36.925  24.228
 974.09  37.053  24.197
 974.59  36.989  24.197
 975.09  36.989  24.228
 975.59  36.989  24.228
 976.09  36.989  24.259
 976.59  37.053  24.228
 977.09  36.861  24.290
 977.59  37.053  24.228
 978.09  36.989  24.259
 978.59  36.989  24.259
 979.09  36.989  24.228
 979.59  37.053  24.228
 980.09  36.989  24.228
 980.59  37.053  24.197
 981.09  36.989  24.228
 981.59  36.989  24.290
 982.09  37.053  24.259
 982.59  36.989  24.197
 983.09  37.053  24.259
 983.59  36.925  24.259
 984.09  36.989  24.259
 984.59  36.989  24.259
 985.09  36.989  24.259
 985.59  36.989  24.259
 986.09  37.053  24.228
 986.59  36.925  24.290
 987.09  37.053  24.228
 987.59  37.053  24.228
 988.09  36.989  24.259
 988.59  37.053  24.228
 989.09  36.989  24.259
 989.59  37.053  24.228
 990.09  37.053  24.197
 990.59  36.989  24.228
 991.09  36.989  24.259
 991.59  37.053  24.259
 992.09  36.989  24.259
 992.59  36.989  24.197
 993.09  37.117  24.228
 993.59  37.053  24.197
 994.09  36.989  24.259
 994.59  37.053  24.228
 995.09  36.989  24.228
 995.59  36.989  24.290
 996.09  37.053  24.228
 996.59  37.053  24.259
 997.09  37.053  24.259
 997.59  37.117  24.259
 998.09  37.053  24.228
 998.59  37.053  24.259
 999.09  37.053  24.259
 999.59  37.053  24.259
1000.09  37.053  24.259
1000.59  37.053  24.259
1001.09  37.053  24.290
1001.59  37.053  24.228
1002.09  37.117  24.228
1002.59  37.053  24.290
1003.09  37.053  24.228
1003.59  36.989  24.197
1004.09  37.117  24.259
1004.59  36.989  24.259
1005.09  37.053  24.259
1005.59  36.861  24.259
1006.09  37.117  24.228
1006.59  37.117  24.228
1007.09  37.117  24.259
1007.59  36.989  24.259
1008.09  37.117  24.259
1008.59  36.925  24.290
1009.09  37.053  24.259
1009.59  37.053  24.259
1010.09  37.117  24.228
1010.59  37.181  24.259
1011.09  37.117  24.259
1011.59  37.117  24.259
1012.09  37.117  24.259
1012.59  36.925  24.228
1013.09  37.053  24.228
1013.59  37.117  24.259
1014.09  37.053  24.228
1014.59  36.989  24.259
1015.09  37.117  24.228
1015.59  37.117  24.259
1016.09  37.053  24.259
1016.59  37.117  24.167
1017.09  37.117  24.228
1017.59  37.117  24.259
1018.09  37.181  24.259
1018.59  37.117  24.259
1019.09  36.989  24.228
1019.59  37.117  24.259
1020.09  37.117  24.259
1020.59  37.053  24.259
1021.09  37.117  24.259
1021.59  37.053  24.290
1022.09  36.989  24.259
1022.59  37.117  24.259
1023.09  37.117  24.259
1023.59  37.245  24.259
1024.09  37.181  24.259
1024.59  37.181  24.290
1025.09  37.181  24.259
1025.59  37.181  24.228
1026.09  37.181  24.290
1026.59  37.117  24.228
1027.09  37.181  24.259
1027.59  37.117  24.259
1028.09  37.117  24.321
1028.59  37.117  24.259
1029.09  37.181  24.290
1029.59  37.117  24.290
1030.09  37.117  24.259
1030.59  37.181  24.259
1031.09  37.117  24.259
1031.59  37.181  24.259
1032.09  37.117  24.259
1032.59  37.181  24.259
1033.09  37.117  24.290
1033.59  37.117  24.259
1034.09  37.181  24.290
1034.59  37.181  24.259
1035.09  37.245  24.259
1035.59  37.181  24.197
1036.09  37.181  24.228
1036.59  37.181  24.259
1037.09  37.181  24.259
1037.59  37.181  24.259
1038.09  37.053  24.259
1038.59  37.053  24.228
1039.09  37.245  24.228
1039.59  37.181  24.228
1040.09  37.117  24.228
1040.59  37.181  24.259
1041.09  37.181  24.259
1041.59  37.309  24.259
1042.09  37.245  24.259
1042.59  37.053  24.228
1043.09  37.181  24.228
1043.59  37.181  24.259
1044.09  37.117  24.321
1044.59  37.181  24.290
1045.09  37.117  24.228
1045.59  37.181  24.259
1046.09  37.181  24.290
1046.59  37.181  24.259
1047.09  37.181  24.259
1047.59  37.117  24.290
1048.09  37.245  24.197
1048.59  37.245  24.259
1049.09  37.117  24.228
1049.59  37.181  24.290
1050.09  37.245  24.259
1050.59  37.117  24.259
1051.09  37.245  24.259
1051.59  37.117  24.290
1052.09  37.181  24.228
1052.59  37.117  24.259
1053.09  37.181  24.259
1053.59  37.117  24.290
1054.09  37.245  24.259
1054.59  37.245  24.197
1055.09  37.181  24.290
1055.59  37.117  24.259
1056.09  37.181  24.259
1056.59  37.117  24.290
1057.09  37.117  24.290
1057.59  37.181  24.228
1058.09  37.181  24.259
1058.59  37.181  24.259
1059.09  37.245  24.228
1059.59  37.181  24.228
1060.09  37.181  24.228
1060.59  37.181  24.259
1061.09  37.181  24.259
1061.59  37.181  24.259
1062.09  37.181  24.197
1062.59  37.309  24.290
1063.09  37.245  24.228
1063.59  37.181  24.259
1064.09  37.245  24.259
1064.59  37.181  24.259
1065.09  37.181  24.228
1065.59  37.181  24.259
1066.10  37.181  24.290
1066.60  37.245  24.290
1067.10  37.117  24.259
1067.60  37.117  24.228
1068.10  37.245  24.259
1068.60  37.245  24.228
1069.10  37.181  24.259
1069.60  37.245  24.228
1070.10  37.245  24.228
1070.60  37.181  24.259
1071.10  37.181  24.259
1071.60  37.501  24.259
1072.10  37.245  24.290
1072.60  37.245  24.259
1073.10  37.245  24.259
1073.60  37.245  24.290
1074.10  37.181  24.290
1074.60  37.181  24.259
1075.10  37.245  24.228
1075.60  37.309  24.290
1076.10  37.309  24.228
1076.60  37.245  24.259
1077.10  37.181  24.259
1077.60  37.309  24.228
1078.10  37.245  24.259
1078.60  37.181  24.290
1079.10  37.309  24.290
1079.60  37.309  24.259
1080.10  37.245  24.259
1080.60  37.245  24.259
1081.10  37.245  24.259
1081.60  37.245  24.259
1082.10  37.245  24.259
1082.60  37.245  24.228
1083.10  37.309  24.259
1083.60  37.245  24.259
1084.10  37.245  24.228
1084.60  37.181  24.259
1085.10  37.309  24.290
1085.60  37.245  24.228
1086.10  37.309  24.259
1086.60  37.245  24.259
1087.10  37.117  24.259
1087.60  37.309  24.259
1088.10  37.245  24.228
1088.60  37.245  24.259
1089.10  37.309  24.290
1089.60  37.245  24.228
1090.10  37.181  24.259
1090.60  37.245  24.259
1091.10  37.309  24.259
1091.60  37.245  24.228
1092.10  37.245  24.259
1092.60  37.309  24.259
1093.10  37.245  24.259
1093.60  37.245  24.228
1094.10  37.181  24.259
1094.60  37.309  24.259
1095.10  37.117  24.290
1095.60  37.245  24.259
1096.10  37.309  24.290
1096.60  37.245  24.259
1097.10  37.245  24.259
1097.60  37.373  24.259
1098.10  37.245  24.259
1098.60  37.245  24.351
1099.10  37.245  24.259
1099.60  37.309  24.228
1100.10  37.309  24.290
1100.60  37.309  24.259
1101.10  37.245  24.259
1101.60  37.309  24.228
1102.10  37.245  24.259
1102.60  37.245  24.290
1103.10  37.245  24.259
1103.60  37.245  24.228
1104.10  37.309  24.290
1104.60  37.309  24.228
1105.10  37.309  24.259
1105.60  37.309  24.290
1106.10  37.117  24.290
1106.60  37.309  24.259
1107.10  37.245  24.259
1107.60  37.245  24.290
1108.10  37.245  24.259
1108.60  37.309  24.290
1109.10  37.373  24.259
1109.60  37.309  24.259
1110.10  37.309  24.259
1110.60  37.373  24.290
1111.10  37.245  24.259
1111.60  37.309  24.259
1112.10  37.309  24.259
1112.60  37.309  24.259
1113.10  37.309  24.290
1113.60  37.309  24.259
1114.10  37.309  24.259
1114.60  37.309  24.290
1115.10  37.309  24.290
1115.60  37.309  24.259
1116.10  37.373  24.259
1116.60  37.373  24.290
1117.10  37.373  24.228
1117.60  37.309  24.321
1118.10  37.373  24.259
1118.60  37.373  24.259
1119.10  37.373  24.259
1119.60  37.373  24.259
1120.10  37.309  24.259
1120.60  37.309  24.290
1121.10  37.309  24.290
1121.60  37.309  24.259
1122.10  37.309  24.259
1122.60  37.309  24.259
1123.10  37.309  24.290
1123.60  37.373  24.259
1124.10  37.309  24.259
1124.60  37.309  24.321
1125.10  37.373  24.290
1125.60  37.309  24.290
1126.10  37.245  24.259
1126.60  37.373  24.228
1127.10  37.181  24.228
1127.60  37.373  24.290
1128.10  37.309  24.259
1128.60  37.373  24.259
1129.10  37.373  24.228
1129.60  37.373  24.259
1130.10  37.309  24.259
1130.60  37.373  24.259
1131.10  37.309  24.259
1131.60  37.373  24.290
1132.10  37.309  24.290
1132.60  37.309  24.259
1133.10  37.245  24.290
1133.60  37.245  24.321
1134.10  37.181  24.290
1134.60  37.309  24.259
1135.10  37.437  24.259
1135.60  37.309  24.259
1136.10  37.437  24.259
1136.60  37.245  24.259
1137.10  37.373  24.321
1137.60  37.309  24.259
1138.10  37.373  24.290
1138.60  37.373  24.259
1139.10  37.309  24.290
1139.60  37.309  24.259
1140.10  37.309  24.228
1140.60  37.373  24.290
1141.10  37.373  24.321
1141.60  37.373  24.259
1142.10  37.373  24.259
1142.60  37.245  24.259
1143.10  37.373  24.228
1143.60  37.309  24.259
1144.10  37.373  24.259
1144.60  37.309  24.259
1145.10  37.437  24.228
1145.60  37.373  24.228
1146.10  37.309  24.259
1146.60  37.309  24.290
1147.10  37.373  24.259
1147.60  37.437  24.259
1148.10  37.437  24.259
1148.60  37.309  24.290
1149.10  37.437  24.290
1149.60  37.437  24.259
1150.10  37.437  24.290
1150.60  37.373  24.290
1151.10  37.501  24.228
1151.60  37.309  24.228
1152.10  37.309  24.259
1152.60  37.437  24.259
1153.10  37.373  24.259
1153.60  37.309  24.259
1154.10  37.373  24.290
1154.60  37.373  24.290
1155.10  37.373  24.259
1155.60  37.373  24.259
1156.10  37.373  24.290
1156.60  37.437  24.290
1157.10  37.437  24.259
1157.60  37.373  24.290
1158.10  37.437  24.290
1158.60  37.117  24.259
1159.10  37.373  24.290
1159.60  37.373  24.290
1160.10  37.437  24.259
1160.60  37.373  24.290
1161.10  37.501  24.259
1161.60  37.373  24.290
1162.10  37.437  24.259
1162.60  37.437  24.321
1163.10  37.373  24.259
1163.60  37.437  24.259
1164.10  37.437  24.290
1164.60  37.437  24.259
1165.10  37.437  24.321
1165.60  37.437  24.259
1166.10  37.373  24.259
1166.60  37.373  24.290
1167.10  37.373  24.259
1167.60  37.373  24.290
1168.10  37.309  24.259
1168.60  37.437  24.290
1169.10  37.373  24.290
1169.60  37.437  24.259
1170.10  37.373  24.259
1170.60  37.373  24.290
1171.10  37.373  24.290
1171.60  37.309  24.228
1172.10  37.373  24.290
1172.60  37.437  24.290
1173.10  37.437  24.290
1173.60  37.501  24.290
1174.10  37.437  24.259
1174.60  37.437  24.259
1175.10  37.437  24.259
1175.60  37.501  24.290
1176.10  37.437  24.259
1176.60  37.437  24.259
1177.10  37.373  24.259
1177.60  37.501  24.290
1178.10  37.437  24.290
1178.60  37.437  24.290
1179.11  37.501  24.290
1179.61  37.437  24.259
1180.11  37.373  24.259
1180.61  37.373  24.228
1181.11  37.437  24.228
1181.61  37.437  24.259
1182.11  37.373  24.259
1182.61  37.437  24.290
1183.11  37.437  24.290
1183.61  37.373  24.228
1184.11  37.437  24.290
1184.61  37.437  24.290
1185.11  37.437  24.290
1185.61  37.501  24.351
1186.11  37.501  24.259
1186.61  37.373  24.290
1187.11  37.437  24.290
1187.61  37.373  24.321
1188.11  37.501  24.290
1188.61  37.565  24.290
1189.11  37.565  24.259
1189.61  37.373  24.259
1190.11  37.437  24.290
1190.61  37.437  24.290
1191.11  37.501  24.321
1191.61  37.501  24.290
1192.11  37.501  24.290
1192.61  37.437  24.290
1193.11  37.501  24.290
1193.61  37.501  24.290
1194.11  37.437  24.290
1194.61  37.501  24.290
1195.11  37.501  24.290
1195.61  37.501  24.259
1196.11  37.501  24.228
1196.61  37.501  24.290
1197.11  37.501  24.290
1197.61  37.629  24.290
1198.11  37.501  24.259
1198.61  37.501  24.290
1199.11  37.501  24.321
1199.61  37.501  24.259
1200.11  37.437  24.290
1200.61  37.437  24.290
1201.11  37.501  24.290
1201.61  37.501  24.259
1202.11  37.373  24.290
1202.61  37.501  24.290
1203.11  37.437  24.290
1203.61  37.501  24.259
1204.11  37.501  24.351
1204.61  37.501  24.228
1205.11  37.501  24.259
1205.61  37.565  24.290
1206.11  37.437  24.259
1206.61  37.501  24.259
1207.11  37.565  24.290
1207.61  37.437  24.290
1208.11  37.501  24.290
1208.61  37.437  24.259
1209.11  37.501  24.259
1209.61  37.565  24.321
1210.11  37.565  24.290
1210.61  37.373  24.321
1211.11  37.501  24.290
1211.61  37.501  24.290
1212.11  37.501  24.321
1212.61  37.437  24.259
1213.11  37.629  24.321
1213.61  37.501  24.228
1214.11  37.565  24.321
1214.61  37.501  24.321
1215.11  37.501  24.259
1215.61  37.501  24.228
1216.11  37.501  24.259
1216.61  37.501  24.290
1217.11  37.501  24.290
1217.61  37.437  24.290
1218.11  37.437  24.290
1218.61  37.565  24.290
1219.11  37.501  24.259
1219.61  37.565  24.259
1220.11  37.565  24.290
1220.61  37.501  24.290
1221.11  37.501  24.290
1221.61  37.501  24.259
1222.11  37.437  24.259
1222.61  37.629  24.228
1223.11  37.501  24.259
1223.61  37.565  24.259
1224.11  37.501  24.259
1224.61  37.629  24.228
1225.11  37.565  24.290
1225.61  37.565  24.290
1226.11  37.629  24.290
1226.61  37.501  24.259
1227.11  37.565  24.290
1227.61  37.501  24.290
1228.11  37.501  24.321
1228.61  37.629  24.290
1229.11  37.565  24.290
1229.61  37.501  24.290
1230.11  37.565  24.290
1230.61  37.565  24.259
1231.11  37.501  24.290
1231.61  37.501  24.290
1232.11  37.437  24.321
1232.61  37.629  24.259
1233.11  37.565  24.290
1233.61  37.565  24.259
1234.11  37.501  24.321
1234.61  37.501  24.290
1235.11  37.565  24.259
1235.61  37.501  24.351
1236.11  37.565  24.290
1236.61  37.565  24.290
1237.11  37.501  24.259
1237.61  37.565  24.290
1238.11  37.565  24.321
1238.61  37.501  24.321
1239.11  37.565  24.290
1239.61  37.565  24.290
1240.11  37.501  24.290
1240.61  37.501  24.290
1241.11  37.501  24.321
1241.61  37.629  24.290
1242.11  37.565  24.290
1242.61  37.565  24.259
1243.11  37.437  24.321
1243.61  37.629  24.290
1244.11  37.565  24.259
1244.61  37.565  24.259
1245.11  37.501  24.290
1245.61  37.565  24.290
1246.11  37.565  24.290
1246.61  37.565  24.290
1247.11  37.629  24.290
1247.61  37.629  24.290
1248.11  37.629  24.290
1248.61  37.501  24.259
1249.11  37.565  24.290
1249.61  37.501  24.259
1250.11  37.565  24.290
1250.61  37.437  24.321
1251.11  37.629  24.290
1251.61  37.501  24.290
1252.11  37.565  24.228
1252.61  37.565  24.290
1253.11  37.629  24.259
1253.61  37.565  24.321
1254.11  37.629  24.290
1254.61  37.629  24.290
1255.11  37.565  24.290
1255.61  37.629  24.290
1256.11  37.565  24.290
1256.61  37.565  24.290
1257.11  37.565  24.290
1257.61  37.629  24.290
1258.11  37.501  24.290
1258.61  37.629  24.321
1259.11  37.629  24.290
1259.61  37.629  24.290
1260.11  37.757  24.259
1260.61  37.565  24.321
1261.11  37.565  24.290
1261.61  37.565  24.259
1262.11  37.629  24.290
1262.61  37.565  24.290
1263.11  37.629  24.321
1263.61  37.629  24.259
1264.11  37.629  24.290
1264.61  37.629  24.290
1265.11  37.629  24.290
1265.61  37.501  24.290
1266.11  37.629  24.290
1266.61  37.693  24.259
1267.11  37.565  24.290
1267.61  37.501  24.290
1268.11  37.693  24.351
1268.61  37.501  24.321
1269.11  37.565  24.290
1269.61  37.565  24.290
1270.11  37.693  24.321
1270.61  37.565  24.290
1271.11  37.437  24.351
1271.61  37.437  24.290
1272.11  37.629  24.228
1272.61  37.629  24.290
1273.11  37.693  24.290
1273.61  37.501  24.259
1274.11  37.629  24.259
1274.61  37.629  24.290
1275.11  37.629  24.290
1275.61  37.693  24.290
1276.11  37.565  24.321
1276.61  37.565  24.290
1277.11  37.629  24.290
1277.61  37.629  24.290
1278.11  37.629  24.290
1278.61  37.629  24.290
1279.11  37.565  24.321
1279.61  37.821  24.290
1280.11  37.693  24.321
1280.61  37.693  24.290
1281.11  37.693  24.290
1281.61  37.437  24.321
1282.11  37.629  24.290
1282.61  37.693  24.321
1283.11  37.565  24.290
1283.61  37.629  24.290
1284.11  37.629  24.290
1284.61  37.757  24.321
1285.11  37.693  24.290
1285.61  37.693  24.321
1286.11  37.629  24.290
1286.61  37.629  24.290
1287.11  37.629  24.259
1287.61  37.693  24.290
1288.11  37.629  24.290
1288.61  37.693  24.321
1289.11  37.693  24.259
1289.61  37.629  24.290
1290.11  37.693  24.290
1290.61  37.693  24.197
1291.11  37.629  24.290
1291.61  37.629  24.351
1292.12  37.629  24.290
1292.62  37.757  24.290
1293.12  37.629  24.290
1293.62  37.629  24.259
1294.12  37.693  24.290
1294.62  37.565  24.290
1295.12  37.693  24.290
1295.62  37.629  24.259
1296.12  37.629  24.290
1296.62  37.693  24.290
1297.12  37.693  24.290
1297.62  37.629  24.321
1298.12  37.565  24.290
1298.62  37.693  24.321
1299.12  37.693  24.290
1299.62  37.629  24.290
1300.12  37.693  24.290
1300.62  37.629  24.290
1301.12  37.629  24.290
1301.62  37.757  24.290
1302.12  37.693  24.321
1302.62  37.629  24.290
1303.12  37.693  24.351
1303.62  37.693  24.228
1304.12  37.693  24.290
1304.62  37.629  24.259
1305.12  37.885  24.321
1305.62  37.565  24.290
1306.12  37.629  24.290
1306.62  37.693  24.321
1307.12  37.629  24.290
1307.62  37.629  24.290
1308.12  37.693  24.321
1308.62  37.757  24.290
1309.12  37.693  24.321
1309.62  37.693  24.321
1310.12  37.693  24.321
1310.62  37.693  24.228
1311.12  37.757  24.321
1311.62  37.757  24.321
1312.12  37.629  24.290
1312.62  37.693  24.321
1313.12  37.693  24.321
1313.62  37.629  24.290
1314.12  37.629  24.290
1314.62  37.629  24.321
1315.12  37.693  24.259
1315.62  37.629  24.290
1316.12  37.693  24.290
1316.62  37.629  24.321
1317.12  37.629  24.290
1317.62  37.693  24.321
1318.12  37.693  24.321
1318.62  37.693  24.290
1319.12  37.693  24.321
1319.62  37.629  24.321
1320.12  37.693  24.290
1320.62  37.693  24.290
1321.12  37.693  24.321
1321.62  37.629  24.290
1322.12  37.693  24.259
1322.62  37.693  24.321
1323.12  37.629  24.321
1323.62  37.693  24.321
1324.12  37.693  24.290
1324.62  37.757  24.290
1325.12  37.693  24.290
1325.62  37.629  24.290
1326.12  37.757  24.290
1326.62  37.629  24.259
1327.12  37.693  24.290
1327.62  37.693  24.290
1328.12  37.693  24.321
1328.62  37.693  24.290
1329.12  37.629  24.290
1329.62  37.693  24.290
1330.12  37.693  24.290
1330.62  37.693  24.290
1331.12  37.693  24.290
1331.62  37.629  24.321
1332.12  37.629  24.321
1332.62  37.693  24.321
1333.12  37.693  24.382
1333.62  37.757  24.290
1334.12  37.693  24.351
1334.62  37.757  24.290
1335.12  37.757  24.259
1335.62  37.693  24.321
1336.12  37.757  24.321
1336.62  37.693  24.321
1337.12  37.693  24.321
1337.62  37.757  24.290
1338.12  37.757  24.321
1338.62  37.821  24.290
1339.12  37.693  24.290
1339.62  37.629  24.321
1340.12  37.693  24.290
1340.62  37.629  24.290
1341.12  37.757  24.290
1341.62  37.693  24.290
1342.12  37.693  24.321
1342.62  37.693  24.290
1343.12  37.757  24.321
1343.62  37.757  24.290
1344.12  37.693  24.321
1344.62  37.693  24.321
1345.12  37.821  24.290
1345.62  37.693  24.290
1346.12  37.757  24.321
1346.62  37.757  24.290
1347.12  37.757  24.290
1347.62  37.693  24.290
1348.12  37.757  24.321
1348.62  37.629  24.321
1349.12  37.757  24.321
1349.62  37.757  24.290
1350.12  37.757  24.321
1350.62  37.693  24.290
1351.12  37.693  24.290
1351.62  37.693  24.290
1352.12  37.757  24.321
1352.62  37.757  24.321
1353.12  37.629  24.290
1353.62  37.821  24.259
1354.12  37.693  24.321
1354.62  37.757  24.259
1355.12  37.757  24.290
1355.62  37.757  24.290
1356.12  37.757  24.321
1356.62  37.757  24.321
1357.12  37.821  24.321
1357.62  37.693  24.290
1358.12  37.757  24.321
1358.62  37.757  24.351
1359.12  37.693  24.321
1359.62  37.757  24.290
1360.12  37.821  24.321
1360.62  37.693  24.290
1361.12  37.821  24.290
1361.62  37.757  24.321
1362.12  37.757  24.351
1362.62  37.757  24.351
1363.12  37.757  24.321
1363.62  37.757  24.321
1364.12  37.757  24.321
1364.62  37.693  24.259
1365.12  37.757  24.321
1365.62  37.821  24.321
1366.12  37.885  24.321
1366.62  37.693  24.290
1367.12  37.757  24.290
1367.62  37.757  24.321
1368.12  37.821  24.321
1368.62  37.757  24.290
1369.12  37.821  24.321
1369.62  37.885  24.290
1370.12  37.693  24.321
1370.62  37.821  24.321
1371.12  37.757  24.290
1371.62  37.757  24.290
1372.12  37.821  24.321
1372.62  37.821  24.290
1373.12  37.693  24.259
1373.62  37.757  24.290
1374.12  37.757  24.290
1374.62  37.757  24.321
1375.12  37.693  24.290
1375.62  37.693  24.321
1376.12  37.757  24.321
1376.62  37.757  24.321
1377.12  38.077  24.321
1377.62  37.757  24.321
1378.12  37.757  24.259
1378.62  37.693  24.321
1379.12  37.757  24.321
1379.62  37.821  24.321
1380.12  37.821  24.321
1380.62  37.821  24.321
1381.12  37.693  24.351
1381.62  37.821  24.321
1382.12  37.757  24.321
1382.62  37.821  24.259
1383.12  37.821  24.290
1383.62  37.757  24.321
1384.12  37.821  24.351
1384.62  37.757  24.321
1385.12  37.821  24.351
1385.62  37.693  24.290
1386.12  37.821  24.382
1386.62  37.885  24.290
1387.12  37.949  24.321
1387.62  37.821  24.321
1388.12  37.821  24.321
1388.62  37.821  24.321
1389.12  37.821  24.321
1389.62  37.885  24.290
1390.12  37.821  24.321
1390.62  37.821  24.321
1391.12  37.757  24.321
1391.62  37.821  24.351
1392.12  37.821  24.351
1392.62  37.757  24.321
1393.12  37.757  24.321
1393.62  37.757  24.321
1394.12  37.821  24.321
1394.62  37.757  24.321
1395.12  37.949  24.259
1395.62  37.821  24.321
1396.12  37.821  24.290
1396.62  37.949  24.321
1397.12  37.757  24.321
1397.62  37.821  24.228
1398.12  37.757  24.321
1398.62  37.821  24.351
1399.12  37.757  24.321
1399.62  37.757  24.290
1400.12  37.757  24.382
1400.62  37.885  24.321
1401.12  37.885  24.290
1401.62  37.821  24.321
1402.12  37.757  24.259
1402.62  37.821  24.290
1403.12  37.757  24.351
1403.62  37.885  24.321
1404.12  37.821  24.290
1404.62  37.821  24.321
1405.12  37.757  24.351
1405.62  37.821  24.321
1406.12  37.821  24.290
1406.62  37.821  24.321
1407.12  37.821  24.321
1407.62  37.885  24.321
1408.12  37.885  24.321
1408.62  37.821  24.351
1409.12  37.885  24.321
1409.62  37.757  24.321
1410.12  37.757  24.290
1410.62  37.821  24.321
1411.12  37.757  24.321
1411.62  37.821  24.321
1412.12  37.949  24.290
1412.62  37.757  24.321
1413.12  37.821  24.321
1413.62  37.821  24.351
1414.12  37.821  24.321
1414.62  38.013  24.351
1415.12  37.885  24.321
1415.62  37.821  24.321
1416.13  37.885  24.351
1416.63  37.821  24.351
1417.13  37.885  24.321
1417.63  37.821  24.321
1418.13  37.821  24.382
1418.63  37.757  24.321
1419.13  37.885  24.321
1419.63  37.885  24.321
1420.13  37.885  24.321
1420.63  37.885  24.321
1421.13  37.757  24.290
1421.63  37.885  24.321
1422.13  37.821  24.351
1422.63  37.885  24.321
1423.13  37.885  24.413
1423.63  37.757  24.259
1424.13  37.949  24.321
1424.63  37.821  24.351
1425.13  37.885  24.321
1425.63  37.821  24.321
1426.13  37.885  24.321
1426.63  37.821  24.290
1427.13  37.821  24.351
1427.63  37.885  24.290
1428.13  37.885  24.321
1428.63  37.885  24.321
1429.13  37.821  24.321
1429.63  37.885  24.290
1430.13  37.821  24.290
1430.63  37.885  24.321
1431.13  37.821  24.321
1431.63  37.821  24.290
1432.13  37.885  24.321
1432.63  37.885  24.321
1433.13  37.949  24.321
1433.63  37.885  24.321
1434.13  37.821  24.290
1434.63  37.821  24.321
1435.13  37.821  24.290
1435.63  37.885  24.290
1436.13  37.885  24.321
1436.63  37.885  24.321
1437.13  37.885  24.351
1437.63  37.693  24.290
1438.13  37.821  24.321
1438.63  37.821  24.321
1439.13  37.885  24.382
1439.63  37.949  24.321
1440.13  37.885  24.321
1440.63  37.821  24.321
1441.13  37.885  24.321
1441.63  37.885  24.321
1442.13  37.821  24.321
1442.63  37.885  24.321
1443.13  37.949  24.321
1443.63  37.885  24.321
1444.13  37.885  24.321
1444.63  37.885  24.321
1445.13  37.821  24.321
1445.63  37.885  24.321
1446.13  37.949  24.321
1446.63  37.885  24.351
1447.13  37.949  24.321
1447.63  37.949  24.321
1448.13  37.949  24.321
1448.63  38.013  24.321
1449.13  37.885  24.351
1449.63  37.885  24.351
1450.13  37.885  24.321
1450.63  37.885  24.290
1451.13  37.885  24.321
1451.63  37.949  24.321
1452.13  37.949  24.321
1452.63  37.885  24.351
1453.13  37.885  24.351
1453.63  37.885  24.351
1454.13  37.885  24.259
1454.63  37.949  24.321
1455.13  37.949  24.321
1455.63  37.885  24.351
1456.13  37.885  24.351
1456.63  37.885  24.321
1457.13  37.949  24.321
1457.63  37.949  24.321
1458.13  37.821  24.321
1458.63  37.885  24.321
1459.13  37.885  24.382
1459.63  37.885  24.259
1460.13  37.949  24.351
1460.63  37.821  24.321
1461.13  37.885  24.321
1461.63  37.949  24.290
1462.13  37.885  24.321
1462.63  37.821  24.321
1463.13  37.885  24.351
1463.63  37.885  24.321
1464.13  37.885  24.321
1464.63  37.949  24.321
1465.13  37.885  24.321
1465.63  37.885  24.321
1466.13  37.949  24.351
1466.63  37.949  24.321
1467.13  37.949  24.321
1467.63  37.885  24.290
1468.13  37.885  24.351
1468.63  37.885  24.351
1469.13  37.885  24.351
1469.63  37.821  24.321
1470.13  37.885  24.351
1470.63  37.885  24.321
1471.13  37.885  24.321
1471.63  37.885  24.321
1472.13  37.885  24.321
1472.63  37.949  24.321
1473.13  37.949  24.321
1473.63  37.885  24.321
1474.13  37.949  24.321
1474.63  37.885  24.321
1475.13  37.885  24.321
1475.63  38.013  24.290
1476.13  37.949  24.290
1476.63  37.757  24.290
1477.13  37.949  24.290
1477.63  37.949  24.321
1478.13  37.821  24.290
1478.63  37.949  24.321
1479.13  37.885  24.321
1479.63  37.949  24.321
1480.13  37.885  24.290
1480.63  37.949  24.321
1481.13  37.885  24.351
1481.63  37.949  24.321
1482.13  37.949  24.321
1482.63  37.885  24.351
1483.13  37.949  24.321
1483.63  37.949  24.351
1484.13  37.885  24.321
1484.63  37.949  24.321
1485.13  37.885  24.382
1485.63  37.949  24.351
1486.13  38.013  24.321
1486.63  37.949  24.382
1487.13  37.885  24.351
1487.63  37.949  24.321
1488.13  37.949  24.351
1488.63  37.949  24.321
1489.13  38.013  24.351
1489.63  37.949  24.321
1490.13  38.013  24.321
1490.63  37.949  24.351
1491.13  37.949  24.321
1491.63  37.949  24.321
1492.13  37.949  24.290
1492.63  37.885  24.321
1493.13  38.013  24.321
1493.63  37.949  24.321
1494.13  37.949  24.321
1494.63  38.013  24.321
1495.13  37.949  24.290
1495.63  37.949  24.321
1496.13  37.949  24.351
1496.63  37.885  24.321
1497.13  37.885  24.321
1497.63  37.949  24.259
1498.13  37.821  24.321
1498.63  37.885  24.351
1499.13  38.013  24.351
1499.63  37.885  24.382
1500.13  37.949  24.351
1500.63  38.013  24.321
1501.13  37.821  24.351
1501.63  37.949  24.351
1502.13  38.077  24.321
1502.63  37.949  24.290
1503.13  38.077  24.351
1503.63  38.013  24.321
1504.13  37.949  24.290
1504.63  37.885  24.351
1505.13  37.949  24.321
1505.63  38.013  24.290
1506.13  37.949  24.290
1506.63  38.013  24.290
1507.13  37.949  24.351
1507.63  38.013  24.351
1508.13  37.949  24.351
1508.63  37.949  24.351
1509.13  37.949  24.351
1509.63  37.949  24.321
1510.13  37.885  24.321
1510.63  37.949  24.321
1511.13  37.949  24.321
1511.63  38.013  24.351
1512.13  37.949  24.382
1512.63  37.949  24.351
1513.13  38.013  24.351
1513.63  38.013  24.351
1514.13  38.013  24.321
1514.63  37.949  24.321
1515.13  37.949  24.321
1515.63  37.949  24.382
1516.13  37.949  24.321
1516.63  38.013  24.351
1517.13  38.013  24.321
1517.63  37.885  24.321
1518.13  38.013  24.351
1518.63  37.949  24.351
1519.13  38.013  24.321
1519.63  38.077  24.321
1520.13  38.013  24.351
1520.63  37.949  24.321
1521.13  38.013  24.351
1521.63  37.821  24.413
1522.13  37.949  24.321
1522.63  37.949  24.321
1523.13  37.949  24.382
1523.63  37.949  24.382
1524.13  38.013  24.382
1524.63  38.013  24.321
1525.13  38.077  24.351
1525.63  37.949  24.321
1526.13  38.077  24.290
1526.63  37.949  24.321
1527.13  37.949  24.351
1527.63  38.013  24.351
1528.13  38.013  24.351
1528.63  37.949  24.321
1529.13  38.013  24.321
1529.64  38.013  24.351
1530.14  38.013  24.290
1530.64  38.013  24.321
1531.14  37.949  24.321
1531.64  37.949  24.351
1532.14  38.013  24.321
1532.64  37.949  24.351
1533.14  38.013  24.351
1533.64  37.949  24.351
1534.14  38.141  24.321
1534.64  38.013  24.321
1535.14  38.141  24.321
1535.64  38.013  24.321
1536.14  38.141  24.321
1536.64  38.013  24.321
1537.14  37.949  24.382
1537.64  38.013  24.290
1538.14  38.013  24.351
1538.64  38.269  24.351
1539.14  38.013  24.321
1539.64  38.013  24.351
1540.14  37.949  24.351
1540.64  38.013  24.382
1541.14  37.949  24.321
1541.64  38.077  24.321
1542.14  38.013  24.382
1542.64  38.013  24.351
1543.14  38.013  24.321
1543.64  38.077  24.351
1544.14  38.013  24.413
1544.64  37.949  24.321
1545.14  38.077  24.382
1545.64  37.949  24.321
1546.14  37.949  24.351
1546.64  38.013  24.321
1547.14  37.885  24.351
1547.64  38.013  24.351
1548.14  38.013  24.351
1548.64  38.013  24.321
1549.14  38.077  24.351
1549.64  37.949  24.351
1550.14  38.013  24.321
1550.64  37.949  24.321
1551.14  38.077  24.321
1551.64  38.077  24.351
1552.14  38.013  24.321
1552.64  38.013  24.351
1553.14  38.013  24.321
1553.64  38.077  24.351
1554.14  37.949  24.351
1554.64  37.949  24.351
1555.14  38.077  24.321
1555.64  38.077  24.351
1556.14  37.949  24.351
1556.64  37.949  24.321
1557.14  38.077  24.321
1557.64  38.013  24.351
1558.14  38.013  24.351
1558.64  37.949  24.351
1559.14  38.077  24.351
1559.64  38.013  24.321
1560.14  38.077  24.351
1560.64  38.013  24.351
1561.14  38.013  24.382
1561.64  38.141  24.351
1562.14  38.013  24.351
1562.64  38.077  24.290
1563.14  38.077  24.321
1563.64  38.013  24.321
1564.14  38.013  24.351
1564.64  38.077  24.321
1565.14  38.077  24.351
1565.64  38.013  24.351
1566.14  38.077  24.259
1566.64  38.077  24.321
1567.14  38.013  24.351
1567.64  38.077  24.321
1568.14  38.077  24.321
1568.64  37.949  24.351
1569.14  38.013  24.259
1569.64  38.013  24.351
1570.14  38.077  24.351
1570.64  38.013  24.351
1571.14  38.013  24.351
1571.64  38.077  24.413
1572.14  38.077  24.321
1572.64  38.141  24.321
1573.14  38.013  24.351
1573.64  37.949  24.321
1574.14  38.077  24.321
1574.64  37.949  24.351
1575.14  38.013  24.321
1575.64  38.013  24.351
1576.14  38.077  24.351
1576.64  38.013  24.351
1577.14  38.077  24.321
1577.64  38.077  24.351
1578.14  38.013  24.321
1578.64  37.949  24.351
1579.14  38.077  24.290
1579.64  38.013  24.351
1580.14  38.013  24.351
1580.64  38.013  24.321
1581.14  38.013  24.351
1581.64  38.013  24.351
1582.14  38.077  24.351
1582.64  38.077  24.321
1583.14  38.141  24.351
1583.64  38.077  24.351
1584.14  38.077  24.351
1584.64  38.077  24.351
1585.14  38.077  24.321
1585.64  38.077  24.382
1586.14  38.077  24.351
1586.64  37.949  24.382
1587.14  38.077  24.382
1587.64  38.077  24.382
1588.14  38.077  24.351
1588.64  38.013  24.382
1589.14  38.077  24.321
1589.64  38.141  24.321
1590.14  38.141  24.351
1590.64  38.077  24.351
1591.14  38.141  24.382
1591.64  38.077  24.382
1592.14  38.141  24.382
1592.64  38.077  24.321
1593.14  38.141  24.351
1593.64  38.077  24.351
1594.14  38.013  24.351
1594.64  38.013  24.351
1595.14  38.077  24.351
1595.64  38.141  24.351
1596.14  38.077  24.351
1596.64  38.077  24.351
1597.14  38.077  24.413
1597.64  38.269  24.351
1598.14  38.141  24.382
1598.64  38.077  24.351
1599.14  38.077  24.382
1599.64  38.141  24.382
1600.14  38.141  24.351
1600.64  38.141  24.321
1601.14  37.949  24.351
1601.64  38.077  24.351
1602.14  38.013  24.351
1602.64  38.077  24.351
1603.14  38.077  24.351
1603.64  38.077  24.351
1604.14  38.077  24.629
1604.64  38.141  24.351
1605.14  38.077  24.321
1605.64  38.077  24.351
1606.14  38.013  24.382
1606.64  38.077  24.351
1607.14  38.013  24.351
1607.64  38.141  24.382
1608.14  38.077  24.382
1608.64  38.077  24.351
1609.14  38.077  24.351
1609.64  38.269  24.413
1610.14  38.077  24.351
1610.64  38.013  24.351
1611.14  37.949  24.351
1611.64  38.077  24.382
1612.14  38.077  24.351
1612.64  38.141  24.351
1613.14  38.077  24.351
1613.64  38.141  24.351
1614.14  38.077  24.351
1614.64  38.141  24.382
1615.14  38.013  24.413
1615.64  38.141  24.351
1616.14  38.141  24.351
1616.64  38.141  24.351
1617.14  38.077  24.413
1617.64  38.077  24.351
1618.14  38.013  24.321
1618.64  38.077  24.351
1619.14  38.077  24.321
1619.64  38.141  24.351
1620.14  38.077  24.351
1620.64  38.205  24.351
1621.14  38.013  24.382
1621.64  38.077  24.382
1622.14  38.141  24.382
1622.64  38.141  24.351
1623.14  38.077  24.321
1623.64  38.141  24.382
1624.14  38.077  24.351
1624.64  38.013  24.382
1625.14  38.141  24.321
1625.64  38.077  24.351
1626.14  38.205  24.351
1626.64  38.077  24.351
1627.14  38.077  24.382
1627.64  38.077  24.351
1628.14  38.141  24.351
1628.64  38.077  24.321
1629.14  38.205  24.413
1629.64  38.077  24.351
1630.14  38.077  24.351
1630.64  38.269  24.413
1631.14  38.205  24.382
1631.64  38.077  24.382
1632.14  38.141  24.321
1632.64  38.141  24.351
1633.14  38.141  24.351
1633.64  38.141  24.351
1634.14  38.141  24.351
1634.64  38.141  24.351
1635.14  38.141  24.351
1635.64  38.205  24.382
1636.14  38.141  24.351
1636.64  38.141  24.382
1637.14  38.205  24.382
1637.64  38.141  24.382
1638.14  38.141  24.351
1638.64  38.205  24.351
1639.14  38.141  24.321
1639.64  38.141  24.351
1640.14  38.141  24.382
1640.64  38.141  24.351
1641.14  38.141  24.351
1641.64  38.141  24.351
1642.14  38.205  24.382
1642.65  38.141  24.351
1643.15  38.077  24.351
1643.65  38.141  24.351
1644.15  38.077  24.382
1644.65  38.205  24.382
1645.15  38.141  24.351
1645.65  38.205  24.382
1646.15  38.077  24.382
1646.65  38.141  24.321
1647.15  38.141  24.382
1647.65  38.141  24.382
1648.15  38.141  24.351
1648.65  38.077  24.351
1649.15  38.141  24.382
1649.65  38.205  24.351
1650.15  38.141  24.351
1650.65  38.141  24.351
1651.15  38.141  24.351
1651.65  38.141  24.382
1652.15  38.077  24.351
1652.65  38.141  24.351
1653.15  38.077  24.351
1653.65  38.461  24.382
1654.15  38.077  24.351
1654.65  38.141  24.382
1655.15  38.205  24.351
1655.65  38.141  24.382
1656.15  38.141  24.351
1656.65  38.141  24.351
1657.15  38.141  24.351
1657.65  38.141  24.382
1658.15  38.141  24.382
1658.65  38.205  24.382
1659.15  38.141  24.382
1659.65  38.205  24.351
1660.15  38.141  24.382
1660.65  38.141  24.351
1661.15  38.205  24.382
1661.65  38.141  24.413
1662.15  38.077  24.351
1662.65  38.141  24.351
1663.15  38.205  24.382
1663.65  38.141  24.382
1664.15  38.141  24.351
1664.65  38.205  24.321
1665.15  38.013  24.351
1665.65  38.141  24.382
1666.15  38.205  24.351
1666.65  38.205  24.382
1667.15  38.141  24.351
1667.65  38.141  24.382
1668.15  38.141  24.382
1668.65  38.141  24.382
1669.15  38.205  24.351
1669.65  38.205  24.351
1670.15  38.269  24.351
1670.65  38.141  24.351
1671.15  38.141  24.351
1671.65  38.141  24.413
1672.15  38.205  24.351
1672.65  38.269  24.351
1673.15  38.205  24.321
1673.65  38.141  24.351
1674.15  38.205  24.351
1674.65  38.205  24.351
1675.15  38.205  24.351
1675.65  38.141  24.382
1676.15  38.205  24.382
1676.65  38.205  24.413
1677.15  38.205  24.351
1677.65  38.205  24.351
1678.15  38.205  24.351
1678.65  38.141  24.351
1679.15  38.077  24.351
1679.65  38.205  24.351
1680.15  38.205  24.351
1680.65  38.269  24.321
1681.15  38.077  24.351
1681.65  38.141  24.351
1682.15  38.141  24.382
1682.65  38.269  24.382
1683.15  38.141  24.351
1683.65  38.077  24.351
1684.15  38.205  24.413
1684.65  38.205  24.351
1685.15  38.013  24.351
1685.65  38.205  24.413
1686.15  38.141  24.382
1686.65  38.205  24.321
1687.15  38.205  24.382
1687.65  38.141  24.351
1688.15  38.205  24.382
1688.65  38.205  24.351
1689.15  38.333  24.382
1689.65  38.269  24.382
1690.15  38.205  24.382
1690.65  38.269  24.321
1691.15  38.141  24.382
1691.65  38.141  24.290
1692.15  38.141  24.382
1692.65  38.205  24.351
1693.15  38.205  24.351
1693.65  38.141  24.351
1694.15  38.205  24.351
1694.65  38.141  24.382
1695.15  38.205  24.382
1695.65  38.205  24.351
1696.15  38.205  24.351
1696.65  38.205  24.351
1697.15  38.205  24.351
1697.65  38.205  24.382
1698.15  38.269  24.351
1698.65  38.269  24.351
1699.15  38.269  24.351
1699.65  38.269  24.321
1700.15  38.205  24.382
1700.65  38.205  24.382
1701.15  38.205  24.413
1701.65  38.141  24.351
1702.15  38.205  24.351
1702.65  38.205  24.321
1703.15  38.205  24.351
1703.65  38.269  24.351
1704.15  38.205  24.382
1704.65  38.205  24.382
1705.15  38.205  24.382
1705.65  38.333  24.351
1706.15  38.141  24.382
1706.65  38.141  24.382
1707.15  38.205  24.382
1707.65  38.205  24.382
1708.15  38.205  24.413
1708.65  38.205  24.382
1709.15  38.205  24.382
1709.65  38.205  24.382
1710.15  38.205  24.321
1710.65  38.205  24.382
1711.15  38.333  24.351
1711.65  38.205  24.351
1712.15  38.205  24.351
1712.65  38.269  24.475
1713.15  38.205  24.321
1713.65  38.205  24.382
1714.15  38.205  24.382
1714.65  38.205  24.382
1715.15  38.269  24.321
1715.65  38.205  24.351
1716.15  38.269  24.351
1716.65  38.269  24.351
1717.15  38.333  24.382
1717.65  38.269  24.382
1718.15  38.205  24.321
1718.65  38.205  24.413
1719.15  38.269  24.382
1719.65  38.269  24.382
1720.15  38.525  24.382
1720.65  38.269  24.351
1721.15  38.205  24.382
1721.65  38.205  24.351
1722.15  38.205  24.382
1722.65  38.269  24.382
1723.15  38.141  24.351
1723.65  38.141  24.382
1724.15  38.205  24.382
1724.65  38.205  24.382
1725.15  38.269  24.382
1725.65  38.141  24.413
1726.15  38.269  24.382
1726.65  38.269  24.382
1727.15  38.269  24.382
1727.65  38.269  24.382
1728.15  38.269  24.351
1728.65  38.205  24.351
1729.15  38.205  24.351
1729.65  38.205  24.351
1730.15  38.141  24.413
1730.65  38.205  24.413
1731.15  38.141  24.382
1731.65  38.205  24.351
1732.15  38.333  24.351
1732.65  38.141  24.351
1733.15  38.205  24.382
1733.65  38.205  24.382
1734.15  38.141  24.382
1734.65  38.269  24.382
1735.15  38.333  24.351
1735.65  38.205  24.382
1736.15  38.141  24.382
1736.65  38.205  24.382
1737.15  38.205  24.382
1737.65  38.269  24.382
1738.15  38.333  24.351
1738.65  38.269  24.382
1739.15  38.205  24.413
1739.65  38.269  24.382
1740.15  38.205  24.351
1740.65  38.269  24.382
1741.15  38.269  24.351
1741.65  38.205  24.413
1742.15  38.205  24.382
1742.65  38.333  24.351
1743.15  38.205  24.382
1743.65  38.269  24.351
1744.15  38.269  24.382
1744.65  38.269  24.382
1745.15  38.333  24.382
1745.65  38.269  24.382
1746.15  38.205  24.382
1746.65  38.269  24.413
1747.15  38.269  24.351
1747.65  38.141  24.382
1748.15  38.205  24.382
1748.65  38.205  24.382
1749.15  38.269  24.351
1749.65  38.333  24.382
1750.15  38.269  24.351
1750.65  38.205  24.413
1751.15  38.269  24.382
1751.65  38.141  24.382
1752.15  38.269  24.351
1752.65  38.141  24.351
1753.15  38.269  24.382
1753.65  38.269  24.351
1754.15  38.205  24.382
1754.65  38.333  24.382
1755.15  38.269  24.382
1755.66  38.205  24.382
1756.16  38.269  24.382
1756.66  38.333  24.382
1757.16  38.269  24.351
1757.66  38.269  24.382
1758.16  38.205  24.351
1758.66  38.269  24.382
1759.16  38.205  24.444
1759.66  38.269  24.382
1760.16  38.269  24.382
1760.66  38.269  24.382
1761.16  38.269  24.413
1761.66  38.205  24.382
1762.16  38.205  24.382
1762.66  38.333  24.351
1763.16  38.205  24.382
1763.66  38.205  24.382
1764.16  38.269  24.382
1764.66  38.269  24.382
1765.16  38.269  24.382
1765.66  38.269  24.382
1766.16  38.205  24.351
1766.66  38.333  24.413
1767.16  38.205  24.351
1767.66  38.333  24.382
1768.16  38.269  24.382
1768.66  38.333  24.351
1769.16  38.269  24.382
1769.66  38.269  24.351
1770.16  38.269  24.382
1770.66  38.269  24.413
1771.16  38.269  24.382
1771.66  38.269  24.382
1772.16  38.333  24.382
1772.66  38.397  24.382
1773.16  38.269  24.444
1773.66  38.269  24.351
1774.16  38.333  24.382
1774.66  38.333  24.382
1775.16  38.269  24.382
1775.66  38.205  24.413
1776.16  38.269  24.382
1776.66  38.333  24.351
1777.16  38.269  24.382
1777.66  38.333  24.382
1778.16  38.269  24.382
1778.66  38.397  24.382
1779.16  38.333  24.382
1779.66  38.269  24.382
1780.16  38.333  24.382
1780.66  38.269  24.382
1781.16  38.269  24.382
1781.66  38.269  24.382
1782.16  38.269  24.382
1782.66  38.333  24.382
1783.16  38.333  24.413
1783.66  38.269  24.413
1784.16  38.205  24.413
1784.66  38.269  24.382
1785.16  38.269  24.382
1785.66  38.333  24.382
1786.16  38.333  24.413
1786.66  38.269  24.351
1787.16  38.333  24.382
1787.66  38.269  24.382
1788.16  38.333  24.413
1788.66  38.269  24.382
1789.16  38.397  24.382
1789.66  38.269  24.382
1790.16  38.269  24.413
1790.66  38.269  24.351
1791.16  38.269  24.382
1791.66  38.333  24.444
1792.16  38.333  24.351
1792.66  38.269  24.413
1793.16  38.333  24.382
1793.66  38.333  24.382
1794.16  38.333  24.382
1794.66  38.269  24.382
1795.16  38.269  24.413
1795.66  38.333  24.351
1796.16  38.333  24.351
1796.66  38.269  24.382
1797.16  38.397  24.382
1797.66  38.333  24.382
1798.16  38.333  24.351
1798.66  38.269  24.413
1799.16  38.205  24.382
1799.66  38.269  24.351
1800.16  38.333  24.351
1800.66  38.269  24.444
1801.16  38.333  24.382
1801.66  38.269  24.382
1802.16  38.269  24.382
1802.66  38.269  24.382
1803.16  38.333  24.413
1803.66  38.269  24.382
1804.16  38.333  24.382
1804.66  38.333  24.475
1805.16  38.333  24.382
1805.66  38.333  24.351
1806.16  38.333  24.382
1806.66  38.397  24.382
1807.16  38.333  24.413
1807.66  38.333  24.413
1808.16  38.269  24.382
1808.66  38.269  24.351
1809.16  38.269  24.382
1809.66  38.333  24.413
1810.16  38.269  24.413
1810.66  38.333  24.413
1811.16  38.269  24.413
1811.66  38.333  24.382
1812.16  38.269  24.382
1812.66  38.333  24.444
1813.16  38.269  24.413
1813.66  38.333  24.413
1814.16  38.269  24.413
1814.66  38.333  24.382
1815.16  38.269  24.382
1815.66  38.269  24.444
1816.16  38.333  24.413
1816.66  38.333  24.382
1817.16  38.589  24.382
1817.66  38.333  24.321
1818.16  38.269  24.413
1818.66  38.333  24.413
1819.16  38.333  24.382
1819.66  38.269  24.382
1820.16  38.333  24.382
1820.66  38.397  24.382
1821.16  38.333  24.382
1821.66  38.333  24.382
1822.16  38.333  24.413
1822.66  38.333  24.351
1823.16  38.333  24.382
1823.66  38.333  24.382
1824.16  38.333  24.382
1824.66  38.333  24.382
1825.16  38.333  24.413
1825.66  38.461  24.382
1826.16  38.269  24.413
1826.66  38.333  24.413
1827.16  38.333  24.382
1827.66  38.333  24.413
1828.16  38.333  24.351
1828.66  38.333  24.413
1829.16  38.333  24.413
1829.66  38.333  24.413
1830.16  38.333  24.413
1830.66  38.333  24.444
1831.16  38.333  24.382
1831.66  38.397  24.413
1832.16  38.333  24.413
1832.66  38.461  24.413
1833.16  38.333  24.413
1833.66  38.333  24.351
1834.16  38.333  24.382
1834.66  38.461  24.413
1835.16  38.333  24.413
1835.66  38.333  24.382
1836.16  38.269  24.382
1836.66  38.333  24.413
1837.16  38.397  24.413
1837.66  38.333  24.413
1838.16  38.525  24.382
1838.66  38.397  24.382
1839.16  38.333  24.413
1839.66  38.333  24.382
1840.16  38.397  24.382
1840.66  38.333  24.413
1841.16  38.333  24.444
1841.66  38.333  24.382
1842.16  38.333  24.413
1842.66  38.333  24.351
1843.16  38.333  24.382
1843.66  38.333  24.413
1844.16  38.333  24.413
1844.66  38.333  24.413
1845.16  38.333  24.413
1845.66  38.333  24.413
1846.16  38.333  24.382
1846.66  38.269  24.382
1847.16  38.397  24.382
1847.66  38.397  24.382
1848.16  38.397  24.382
1848.66  38.397  24.413
1849.16  38.333  24.413
1849.66  38.333  24.382
1850.16  38.397  24.382
1850.66  38.397  24.382
1851.16  38.333  24.382
1851.66  38.525  24.382
1852.16  38.269  24.413
1852.66  38.333  24.382
1853.16  38.333  24.351
1853.66  38.333  24.382
1854.16  38.333  24.444
1854.66  38.333  24.444
1855.16  38.333  24.382
1855.66  38.397  24.382
1856.16  38.397  24.413
1856.66  38.333  24.413
1857.16  38.333  24.413
1857.66  38.269  24.321
1858.16  38.333  24.382
1858.66  38.333  24.413
1859.16  38.333  24.351
1859.66  38.269  24.382
1860.16  38.397  24.413
1860.66  38.397  24.413
1861.16  38.333  24.382
1861.66  38.333  24.382
1862.16  38.269  24.413
1862.66  38.397  24.444
1863.16  38.333  24.413
1863.66  38.333  24.413
1864.16  38.397  24.413
1864.66  38.461  24.382
1865.16  38.333  24.444
1865.66  38.333  24.413
1866.16  38.333  24.413
1866.66  38.333  24.382
1867.16  38.333  24.382
1867.66  38.461  24.413
1868.16  38.461  24.382
1868.66  38.397  24.382
1869.17  38.333  24.413
1869.67  38.397  24.382
1870.17  38.333  24.413
1870.67  38.397  24.413
1871.17  38.333  24.413
1871.67  38.397  24.382
1872.17  38.333  24.382
1872.67  38.397  24.444
1873.17  38.397  24.413
1873.67  38.397  24.444
1874.17  38.333  24.413
1874.67  38.333  24.413
1875.17  38.525  24.382
1875.67  38.397  24.413
1876.17  38.269  24.413
1876.67  38.333  24.351
1877.17  38.397  24.382
1877.67  38.269  24.382
1878.17  38.333  24.475
1878.67  38.397  24.351
1879.17  38.333  24.413
1879.67  38.269  24.413
1880.17  38.461  24.382
1880.67  38.397  24.444
1881.17  38.333  24.413
1881.67  38.397  24.413
1882.17  38.461  24.351
1882.67  38.525  24.413
1883.17  38.461  24.413
1883.67  38.333  24.413
1884.17  38.461  24.413
1884.67  38.525  24.413
1885.17  38.461  24.413
1885.67  38.461  24.351
1886.17  38.525  24.413
1886.67  38.461  24.413
1887.17  38.397  24.413
1887.67  38.333  24.413
1888.17  38.461  24.413
1888.67  38.461  24.413
1889.17  38.397  24.413
1889.67  38.461  24.413
1890.17  38.397  24.444
1890.67  38.397  24.413
1891.17  38.397  24.413
1891.67  38.461  24.413
1892.17  38.461  24.413
1892.67  38.397  24.382
1893.17  38.333  24.413
1893.67  38.397  24.382
1894.17  38.525  24.413
1894.67  38.397  24.413
1895.17  38.397  24.382
1895.67  38.461  24.413
1896.17  38.397  24.413
1896.67  38.397  24.382
1897.17  38.461  24.382
1897.67  38.397  24.413
1898.17  38.461  24.382
1898.67  38.397  24.413
1899.17  38.397  24.382
1899.67  38.461  24.413
1900.17  38.461  24.413
1900.67  38.333  24.413
1901.17  38.397  24.382
1901.67  38.397  24.413
1902.17  38.397  24.382
1902.67  38.397  24.351
1903.17  38.525  24.413
1903.67  38.397  24.444
1904.17  38.397  24.382
1904.67  38.461  24.413
1905.17  38.397  24.382
1905.67  38.397  24.444
1906.17  38.397  24.413
1906.67  38.461  24.413
1907.17  38.397  24.382
1907.67  38.461  24.413
1908.17  38.397  24.444
1908.67  38.461  24.413
1909.17  38.461  24.413
1909.67  38.333  24.413
1910.17  38.589  24.413
1910.67  38.397  24.413
1911.17  38.461  24.413
1911.67  38.525  24.413
1912.17  38.397  24.413
1912.67  38.333  24.444
1913.17  38.397  24.413
1913.67  38.397  24.382
1914.17  38.397  24.382
1914.67  38.461  24.413
1915.17  38.397  24.351
1915.67  38.461  24.413
1916.17  38.397  24.413
1916.67  38.461  24.382
1917.17  38.589  24.413
1917.67  38.461  24.413
1918.17  38.461  24.382
1918.67  38.397  24.413
1919.17  38.525  24.382
1919.67  38.397  24.444
1920.17  38.461  24.444
1920.67  38.397  24.382
1921.17  38.397  24.444
1921.67  38.589  24.413
1922.17  38.461  24.382
1922.67  38.397  24.413
1923.17  38.461  24.413
1923.67  38.525  24.351
1924.17  38.397  24.413
1924.67  38.333  24.382
1925.17  38.461  24.413
1925.67  38.461  24.382
1926.17  39.165  24.413
1926.67  38.397  24.382
1927.17  38.461  24.382
1927.67  38.397  24.413
1928.17  38.397  24.413
1928.67  38.525  24.444
1929.17  38.397  24.382
1929.67  38.461  24.413
1930.17  38.461  24.382
1930.67  38.397  24.413
1931.17  38.397  24.444
1931.67  38.397  24.382
1932.17  38.461  24.413
1932.67  38.397  24.413
1933.17  38.461  24.413
1933.67  38.397  24.413
1934.17  38.525  24.444
1934.67  38.461  24.413
1935.17  38.461  24.413
1935.67  38.461  24.413
1936.17  38.333  24.444
1936.67  38.397  24.413
1937.17  38.461  24.444
1937.67  38.461  24.413
1938.17  38.525  24.413
1938.67  38.461  24.413
1939.17  38.397  24.382
1939.67  38.397  24.413
1940.17  38.589  24.413
1940.67  38.461  24.475
1941.17  38.397  24.413
1941.67  38.461  24.351
1942.17  38.525  24.413
1942.67  38.461  24.413
1943.17  38.461  24.413
1943.67  38.461  24.382
1944.17  38.461  24.413
1944.67  38.589  24.413
1945.17  38.461  24.413
1945.67  38.461  24.413
1946.17  38.461  24.413
1946.67  38.653  24.413
1947.17  38.461  24.413
1947.67  38.461  24.475
1948.17  38.461  24.413
1948.67  38.525  24.413
1949.17  38.397  24.413
1949.67  38.461  24.382
1950.17  38.397  24.413
1950.67  38.525  24.382
1951.17  38.461  24.413
1951.67  38.461  24.413
1952.17  38.461  24.413
1952.67  38.461  24.413
1953.17  38.461  24.382
1953.67  38.525  24.444
1954.17  38.461  24.444
1954.67  38.525  24.444
1955.17  38.461  24.413
1955.67  38.461  24.444
1956.17  38.397  24.413
1956.67  38.589  24.444
1957.17  38.461  24.444
1957.67  38.525  24.413
1958.17  38.461  24.475
1958.67  38.269  24.413
1959.17  38.461  24.413
1959.67  38.461  24.382
1960.17  38.397  24.413
1960.67  38.461  24.444
1961.17  38.461  24.444
1961.67  38.525  24.382
1962.17  38.525  24.413
1962.67  38.461  24.444
1963.17  38.461  24.444
1963.67  38.461  24.475
1964.17  38.333  24.413
1964.67  38.397  24.444
1965.17  38.461  24.413
1965.67  38.461  24.413
1966.17  38.589  24.413
1966.67  38.461  24.444
1967.17  38.397  24.444
1967.67  38.525  24.475
1968.17  38.525  24.444
1968.67  38.525  24.413
1969.17  38.461  24.413
1969.67  38.397  24.413
1970.17  38.461  24.413
1970.67  38.461  24.413
1971.17  38.461  24.413
1971.67  38.589  24.382
1972.17  38.461  24.413
1972.67  38.525  24.413
1973.17  38.525  24.413
1973.67  38.461  24.413
1974.17  38.525  24.413
1974.67  38.589  24.413
1975.17  38.461  24.444
1975.67  38.397  24.413
1976.17  38.525  24.413
1976.67  38.461  24.413
1977.17  38.461  24.413
1977.67  38.461  24.444
1978.17  38.525  24.413
1978.67  38.461  24.413
1979.17  38.461  24.413
1979.67  38.461  24.413
1980.17  38.525  24.444
1980.67  38.525  24.413
1981.17  38.461  24.413
1981.67  38.397  24.382
1982.18  38.461  24.382
1982.68  38.397  24.382
1983.18  38.525  24.413
1983.68  38.461  24.413
1984.18  38.525  24.413
1984.68  38.461  24.413
1985.18  38.461  24.351
1985.68  38.525  24.413
1986.18  38.525  24.413
1986.68  38.525  24.413
1987.18  38.525  24.413
1987.68  38.525  24.444
1988.18  38.397  24.413
1988.68  38.525  24.413
1989.18  38.461  24.413
1989.68  38.525  24.413
1990.18  38.461  24.413
1990.68  38.525  24.413
1991.18  38.461  24.413
1991.68  38.461  24.413
1992.18  38.525  24.444
1992.68  38.525  24.444
1993.18  38.461  24.413
1993.68  38.525  24.444
1994.18  38.461  24.413
1994.68  38.525  24.413
1995.18  38.461  24.413
1995.68  38.461  24.444
1996.18  38.461  24.413
1996.68  38.461  24.413
1997.18  38.589  24.413
1997.68  38.397  24.444
1998.18  38.461  24.413
1998.68  38.525  24.413
1999.18  38.461  24.413
1999.68  38.525  24.413
2000.18  38.461  24.444
2000.68  38.461  24.444
2001.18  38.461  24.413
2001.68  38.525  24.382
2002.18  38.461  24.413
2002.68  38.589  24.413
2003.18  38.525  24.413
2003.68  38.525  24.444
2004.18  38.589  24.444
2004.68  38.525  24.413
2005.18  38.461  24.444
2005.68  38.525  24.444
2006.18  38.653  24.444
2006.68  38.461  24.413
2007.18  38.461  24.413
2007.68  38.525  24.382
2008.18  38.589  24.413
2008.68  38.461  24.444
2009.18  38.589  24.413
2009.68  38.589  24.444
2010.18  38.589  24.413
2010.68  38.525  24.444
2011.18  38.461  24.444
2011.68  38.525  24.413
2012.18  38.525  24.413
2012.68  38.525  24.413
2013.18  38.525  24.413
2013.68  38.525  24.413
2014.18  38.525  24.444
2014.68  38.461  24.444
2015.18  38.525  24.413
2015.68  38.397  24.475
2016.18  38.525  24.413
2016.68  38.589  24.413
2017.18  38.653  24.444
2017.68  38.461  24.413
2018.18  38.525  24.444
2018.68  38.525  24.444
2019.18  38.461  24.382
2019.68  38.589  24.444
2020.18  38.525  24.444
2020.68  38.525  24.444
2021.18  38.525  24.413
2021.68  38.525  24.444
2022.18  38.525  24.506
2022.68  38.589  24.413
2023.18  38.589  24.413
2023.68  38.525  24.413
2024.18  38.461  24.382
2024.68  38.525  24.506
2025.18  38.525  24.475
2025.68  38.397  24.444
2026.18  38.525  24.444
2026.68  38.525  24.444
2027.18  38.525  24.475
2027.68  38.461  24.413
2028.18  38.397  24.382
2028.68  38.525  24.413
2029.18  38.525  24.413
2029.68  38.461  24.506
2030.18  38.525  24.413
2030.68  38.525  24.413
2031.18  38.653  24.413
2031.68  38.653  24.475
2032.18  38.589  24.444
2032.68  38.525  24.413
2033.18  38.589  24.413
2033.68  38.461  24.413
2034.18  38.525  24.475
2034.68  38.525  24.413
2035.18  38.525  24.444
2035.68  38.589  24.444
2036.18  38.589  24.444
2036.68  38.461  24.413
2037.18  38.525  24.413
2037.68  38.525  24.413
2038.18  38.525  24.444
2038.68  38.525  24.475
2039.18  38.589  24.413
2039.68  38.589  24.413
2040.18  38.461  24.444
2040.68  38.653  24.413
2041.18  38.525  24.413
2041.68  38.589  24.444
2042.18  38.525  24.413
2042.68  38.461  24.475
2043.18  38.525  24.444
2043.68  38.461  24.413
2044.18  38.525  24.413
2044.68  38.461  24.444
2045.18  38.461  24.413
2045.68  38.461  24.413
2046.18  38.589  24.444
2046.68  38.781  24.444
2047.18  38.525  24.413
2047.68  38.525  24.444
2048.18  38.461  24.444
2048.68  38.589  24.444
2049.18  38.525  24.444
2049.68  38.525  24.444
2050.18  38.525  24.444
2050.68  38.525  24.413
2051.18  38.589  24.413
2051.68  38.525  24.413
2052.18  38.589  24.413
2052.68  38.461  24.444
2053.18  38.589  24.382
2053.68  38.525  24.444
2054.18  38.525  24.413
2054.68  38.525  24.444
2055.18  38.589  24.413
2055.68  38.589  24.444
2056.18  38.525  24.536
2056.68  38.589  24.444
2057.18  38.717  24.413
2057.68  38.525  24.444
2058.18  38.589  24.444
2058.68  38.525  24.444
2059.18  38.525  24.413
2059.68  38.589  24.444
2060.18  38.525  24.475
2060.68  38.461  24.382
2061.18  38.525  24.444
2061.68  38.589  24.444
2062.18  38.589  24.382
2062.68  38.525  24.444
2063.18  38.653  24.475
2063.68  38.525  24.444
2064.18  38.525  24.444
2064.68  38.589  24.444
2065.18  38.589  24.413
2065.68  38.525  24.444
2066.18  38.525  24.444
2066.68  38.589  24.413
2067.18  38.525  24.444
2067.68  38.525  24.444
2068.18  38.525  24.413
2068.68  38.525  24.351
2069.18  38.525  24.444
2069.68  38.589  24.444
2070.18  38.589  24.444
2070.68  38.589  24.413
2071.18  38.525  24.475
2071.68  38.525  24.444
2072.18  38.525  24.413
2072.68  38.589  24.444
2073.18  38.525  24.413
2073.68  38.589  24.444
2074.18  38.653  24.444
2074.68  38.525  24.444
2075.18  38.589  24.444
2075.68  38.589  24.444
2076.18  38.653  24.444
2076.68  38.589  24.413
2077.18  38.589  24.475
2077.68  38.589  24.444
2078.18  38.461  24.444
2078.68  38.589  24.413
2079.18  38.589  24.444
2079.68  38.461  24.413
2080.18  38.525  24.413
2080.68  38.589  24.475
2081.18  38.461  24.413
2081.68  38.525  24.413
2082.18  38.589  24.475
2082.68  38.525  24.444
2083.18  38.525  24.444
2083.68  38.525  24.475
2084.18  38.525  24.444
2084.68  38.589  24.444
2085.18  38.525  24.444
2085.68  38.589  24.382
2086.18  38.525  24.444
2086.68  38.589  24.413
2087.18  38.525  24.444
2087.68  38.525  24.413
2088.18  38.589  24.444
2088.68  38.653  24.444
2089.18  38.589  24.413
2089.68  38.589  24.475
2090.18  38.525  24.444
2090.68  38.525  24.413
2091.18  38.525  24.413
2091.68  38.589  24.382
2092.18  38.525  24.444
2092.68  38.525  24.444
2093.18  38.653  24.444
2093.68  38.589  24.382
2094.18  38.589  24.382
2094.68  38.653  24.444
2095.19  38.653  24.413
2095.69  38.525  24.413
2096.19  38.525  24.413
2096.69  38.589  24.382
2097.19  38.525  24.444
2097.69  38.589  24.413
2098.19  38.525  24.444
2098.69  38.589  24.444
2099.19  38.589  24.475
2099.69  38.653  24.444
2100.19  38.525  24.444
2100.69  38.653  24.382
2101.19  38.653  24.444
2101.69  38.589  24.444
2102.19  38.589  24.475
2102.69  38.461  24.444
2103.19  38.525  24.444
2103.69  38.589  24.475
2104.19  38.589  24.444
2104.69  38.653  24.444
2105.19  38.525  24.444
2105.69  38.525  24.444
2106.19  38.525  24.444
2106.69  38.525  24.444
2107.19  38.653  24.444
2107.69  38.653  24.413
2108.19  38.653  24.382
2108.69  38.589  24.413
2109.19  38.589  24.413
2109.69  38.653  24.444
2110.19  38.589  24.444
2110.69  38.653  24.444
2111.19  38.525  24.444
2111.69  38.589  24.444
2112.19  38.589  24.444
2112.69  38.589  24.475
2113.19  38.589  24.444
2113.69  38.589  24.413
2114.19  38.653  24.444
2114.69  38.589  24.475
2115.19  38.589  24.382
2115.69  38.653  24.444
2116.19  38.589  24.444
2116.69  38.589  24.444
2117.19  38.525  24.413
2117.69  38.589  24.444
2118.19  38.589  24.444
2118.69  38.653  24.444
2119.19  38.589  24.475
2119.69  38.589  24.444
2120.19  38.653  24.475
2120.69  38.589  24.475
2121.19  38.653  24.444
2121.69  38.589  24.475
2122.19  38.589  24.475
2122.69  38.589  24.475
2123.19  38.525  24.413
2123.69  38.589  24.475
2124.19  38.589  24.444
2124.69  38.525  24.475
2125.19  38.589  24.444
2125.69  38.589  24.413
2126.19  38.653  24.444
2126.69  38.589  24.475
2127.19  38.589  24.444
2127.69  38.653  24.444
2128.19  38.589  24.444
2128.69  38.589  24.444
2129.19  38.525  24.444
2129.69  38.717  24.444
2130.19  38.525  24.444
2130.69  38.525  24.413
2131.19  38.653  24.444
2131.69  38.653  24.413
2132.19  38.525  24.444
2132.69  38.589  24.444
2133.19  38.589  24.413
2133.69  38.589  24.413
2134.19  38.653  24.444
2134.69  38.653  24.413
2135.19  38.461  24.413
2135.69  38.653  24.475
2136.19  38.653  24.413
2136.69  38.589  24.413
2137.19  38.589  24.475
2137.69  38.653  24.444
2138.19  38.525  24.444
2138.69  38.589  24.475
2139.19  38.717  24.444
2139.69  38.461  24.444
2140.19  38.525  24.444
2140.69  38.589  24.444
2141.19  38.653  24.413
2141.69  38.653  24.475
2142.19  38.589  24.444
2142.69  38.589  24.444
2143.19  38.525  24.475
2143.69  38.653  24.444
2144.19  38.525  24.475
2144.69  38.589  24.413
2145.19  38.589  24.444
2145.69  38.589  24.444
2146.19  38.589  24.444
2146.69  38.589  24.444
2147.19  38.525  24.475
2147.69  38.589  24.413
2148.19  38.525  24.444
2148.69  38.653  24.444
2149.19  38.589  24.444
2149.69  38.653  24.444
2150.19  38.653  24.444
2150.69  38.653  24.444
2151.19  38.589  24.444
2151.69  38.653  24.475
2152.19  38.717  24.475
2152.69  38.589  24.444
2153.19  38.589  24.475
2153.69  38.653  24.444
2154.19  38.589  24.444
2154.69  38.589  24.444
2155.19  38.589  24.413
2155.69  38.589  24.444
2156.19  38.525  24.475
2156.69  38.653  24.444
2157.19  38.589  24.475
2157.69  38.589  24.413
2158.19  38.653  24.475
2158.69  38.589  24.444
2159.19  38.589  24.444
2159.69  38.589  24.444
2160.19  38.525  24.444
2160.69  38.653  24.475
2161.19  38.653  24.444
2161.69  38.653  24.413
2162.19  38.589  24.444
2162.69  38.589  24.413
2163.19  38.589  24.444
2163.69  38.653  24.475
2164.19  38.781  24.444
2164.69  38.589  24.444
2165.19  38.589  24.444
2165.69  38.653  24.444
2166.19  38.589  24.444
2166.69  38.653  24.444
2167.19  38.653  24.475
2167.69  38.653  24.444
2168.19  38.653  24.444
2168.69  38.589  24.413
2169.19  38.653  24.444
2169.69  38.589  24.413
2170.19  38.653  24.444
2170.69  38.717  24.444
2171.19  38.653  24.444
2171.69  38.589  24.475
2172.19  38.589  24.413
2172.69  38.589  24.444
2173.19  38.653  24.444
2173.69  38.653  24.444
2174.19  38.653  24.444
2174.69  38.589  24.444
2175.19  38.589  24.475
2175.69  38.653  24.444
2176.19  38.589  24.475
2176.69  38.589  24.413
2177.19  38.653  24.444
2177.69  38.589  24.475
2178.19  38.589  24.444
2178.69  38.653  24.444
2179.19  38.653  24.536
2179.69  38.653  24.475
2180.19  38.653  24.444
2180.69  38.653  24.475
2181.19  38.717  24.444
2181.69  38.653  24.475
2182.19  38.653  24.506
2182.69  38.717  24.475
2183.19  38.653  24.444
2183.69  38.589  24.475
2184.19  38.589  24.444
2184.69  38.525  24.444
2185.19  38.653  24.444
2185.69  38.781  24.475
2186.19  38.589  24.444
2186.69  38.653  24.444
2187.19  38.653  24.413
2187.69  38.717  24.413
2188.19  38.525  24.444
2188.69  38.717  24.475
2189.19  38.653  24.444
2189.69  38.717  24.475
2190.19  38.653  24.444
2190.69  38.653  24.444
2191.19  38.653  24.413
2191.69  38.653  24.444
2192.19  38.653  24.444
2192.69  38.653  24.444
2193.19  38.653  24.444
2193.69  38.653  24.444
2194.19  38.589  24.475
2194.69  38.653  24.413
2195.19  38.653  24.444
2195.69  38.653  24.444
2196.19  38.653  24.444
2196.69  38.653  24.444
2197.19  38.589  24.444
2197.70  38.717  24.444
2198.20  38.653  24.444
2198.70  38.717  24.475
2199.20  38.653  24.413
2199.70  38.653  24.475
2200.20  38.717  24.444
2200.70  38.653  24.475
2201.20  38.589  24.444
2201.70  38.653  24.475
2202.20  38.525  24.475
2202.70  38.717  24.475
2203.20  38.717  24.475
2203.70  38.653  24.475
2204.20  38.653  24.444
2204.70  38.653  24.444
2205.20  38.717  24.444
2205.70  38.653  24.506
2206.20  38.653  24.475
2206.70  38.717  24.444
2207.20  38.653  24.475
2207.70  38.717  24.475
2208.20  38.589  24.475
2208.70  38.717  24.506
2209.20  38.717  24.444
2209.70  38.653  24.475
2210.20  38.653  24.475
2210.70  38.653  24.475
2211.20  38.653  24.444
2211.70  38.589  24.475
2212.20  38.653  24.475
2212.70  38.653  24.444
2213.20  38.653  24.475
2213.70  38.589  24.475
2214.20  38.717  24.506
2214.70  38.653  24.444
2215.20  38.653  24.475
2215.70  38.717  24.475
2216.20  38.653  24.506
2216.70  38.653  24.444
2217.20  38.653  24.506
2217.70  38.717  24.475
2218.20  38.717  24.444
2218.70  38.653  24.475
2219.20  38.653  24.475
2219.70  38.653  24.444
2220.20  38.653  24.444
2220.70  38.717  24.475
2221.20  38.653  24.444
2221.70  38.653  24.444
2222.20  38.653  24.475
2222.70  38.717  24.444
2223.20  38.653  24.444
2223.70  38.653  24.444
2224.20  38.717  24.413
2224.70  38.653  24.444
2225.20  38.653  24.444
2225.70  38.653  24.444
2226.20  38.653  24.444
2226.70  38.653  24.444
2227.20  38.653  24.413
2227.70  38.653  24.444
2228.20  38.653  24.475
2228.70  38.589  24.444
2229.20  38.653  24.475
2229.70  38.717  24.444
2230.20  38.653  24.475
2230.70  38.909  24.475
2231.20  38.653  24.444
2231.70  38.653  24.475
2232.20  38.653  24.475
2232.70  38.653  24.475
2233.20  38.653  24.444
2233.70  38.717  24.444
2234.20  38.653  24.413
2234.70  38.781  24.506
2235.20  38.717  24.444
2235.70  38.717  24.475
2236.20  38.717  24.444
2236.70  38.781  24.475
2237.20  38.717  24.444
2237.70  38.653  24.475
2238.20  38.653  24.444
2238.70  38.717  24.413
2239.20  38.653  24.444
2239.70  38.589  24.444
2240.20  38.653  24.475
2240.70  38.717  24.444
2241.20  38.653  24.475
2241.70  38.717  24.475
2242.20  38.589  24.444
2242.70  38.653  24.444
2243.20  38.717  24.506
2243.70  38.717  24.413
2244.20  38.589  24.506
2244.70  38.717  24.475
2245.20  38.717  24.536
2245.70  38.717  24.475
2246.20  38.717  24.444
2246.70  38.717  24.475
2247.20  38.717  24.475
2247.70  38.717  24.475
2248.20  38.781  24.475
2248.70  38.717  24.444
2249.20  38.717  24.475
2249.70  38.717  24.506
2250.20  38.781  24.475
2250.70  38.717  24.475
2251.20  38.717  24.444
2251.70  38.717  24.475
2252.20  38.717  24.475
2252.70  38.717  24.475
2253.20  38.653  24.475
2253.70  38.781  24.475
2254.20  38.717  24.506
2254.70  38.717  24.475
2255.20  38.717  24.475
2255.70  38.781  24.475
2256.20  38.653  24.475
2256.70  38.653  24.475
2257.20  38.845  24.475
2257.70  38.717  24.475
2258.20  38.653  24.444
2258.70  38.653  24.444
2259.20  38.717  24.475
2259.70  38.781  24.475
2260.20  38.717  24.475
2260.70  38.717  24.475
2261.20  38.781  24.444
2261.70  38.781  24.475
2262.20  38.781  24.475
2262.70  38.653  24.506
2263.20  38.653  24.475
2263.70  38.781  24.506
2264.20  38.717  24.506
2264.70  38.717  24.444
2265.20  38.717  24.444
2265.70  38.717  24.475
2266.20  38.717  24.475
2266.70  38.653  24.475
2267.20  38.653  24.475
2267.70  38.717  24.444
2268.20  38.717  24.475
2268.70  38.717  24.475
2269.20  38.717  24.475
2269.70  38.717  24.475
2270.20  38.781  24.475
2270.70  38.717  24.475
2271.20  38.717  24.413
2271.70  38.717  24.444
2272.20  38.717  24.506
2272.70  38.653  24.475
2273.20  38.653  24.475
2273.70  38.653  24.444
2274.20  38.781  24.475
2274.70  38.781  24.475
2275.20  38.717  24.475
2275.70  38.845  24.475
2276.20  38.717  24.506
2276.70  38.781  24.475
2277.20  38.589  24.506
2277.70  38.717  24.444
2278.20  38.717  24.506
2278.70  38.717  24.413
2279.20  38.781  24.444
2279.70  38.781  24.475
2280.20  38.717  24.475
2280.70  38.717  24.475
2281.20  38.781  24.475
2281.70  38.717  24.475
2282.20  38.653  24.475
2282.70  38.781  24.444
2283.20  38.653  24.506
2283.70  38.717  24.444
2284.20  38.717  24.475
2284.70  38.589  24.475
2285.20  38.653  24.475
2285.70  38.717  24.475
2286.20  38.717  24.506
2286.70  38.781  24.475
2287.20  38.717  24.506
2287.70  38.909  24.475
2288.20  38.717  24.444
2288.70  38.717  24.475
2289.20  38.781  24.536
2289.70  38.717  24.444
2290.20  38.717  24.475
2290.70  38.717  24.475
2291.20  38.717  24.475
2291.70  38.717  24.475
2292.20  38.717  24.475
2292.70  38.653  24.444
2293.20  38.781  24.506
2293.70  38.717  24.475
2294.20  38.717  24.506
2294.70  38.717  24.475
2295.20  38.781  24.475
2295.70  38.781  24.506
2296.20  38.717  24.475
2296.70  38.717  24.506
2297.20  38.717  24.475
2297.70  38.653  24.475
2298.20  38.653  24.475
2298.70  38.717  24.475
2299.20  38.781  24.444
2299.70  38.781  24.506
2300.20  38.781  24.475
2300.70  38.717  24.506
2301.20  38.717  24.475
2301.70  38.781  24.475
2302.20  38.717  24.475
2302.70  38.845  24.506
2303.20  38.717  24.475
2303.70  38.653  24.475
2304.20  38.717  24.444
2304.70  38.717  24.475
2305.20  38.589  24.475
2305.70  38.781  24.506
2306.20  38.717  24.506
2306.70  38.717  24.444
2307.20  38.781  24.475
2307.70  38.781  24.413
2308.20  38.717  24.475
2308.70  38.717  24.475
2309.20  38.781  24.475
2309.70  38.717  24.475
2310.20  38.717  24.475
2310.70  38.717  24.475
2311.20  38.717  24.506
2311.70  38.781  24.444
2312.20  38.781  24.475
2312.70  38.653  24.444
2313.20  38.717  24.475
2313.70  38.781  24.475
2314.20  38.589  24.475
2314.70  38.781  24.475
2315.20  38.781  24.444
2315.70  38.717  24.475
2316.20  38.717  24.475
2316.70  38.845  24.475
2317.20  38.589  24.475
2317.70  38.781  24.444
2318.20  38.717  24.475
2318.70  38.717  24.475
2319.20  38.717  24.475
2319.70  38.781  24.506
2320.20  38.781  24.475
2320.70  38.781  24.506
2321.20  38.781  24.506
2321.71  38.781  24.506
2322.21  38.781  24.444
2322.71  38.909  24.475
2323.21  38.717  24.475
2323.71  38.717  24.444
2324.21  38.717  24.506
2324.71  38.781  24.475
2325.21  38.717  24.506
2325.71  38.781  24.475
2326.21  38.717  24.475
2326.71  38.717  24.475
2327.21  38.781  24.475
2327.71  38.781  24.475
2328.21  38.717  24.475
2328.71  38.717  24.506
2329.21  38.781  24.567
2329.71  38.781  24.444
2330.21  38.653  24.506
2330.71  38.717  24.475
2331.21  38.717  24.475
2331.71  38.653  24.475
2332.21  38.717  24.475
2332.71  38.781  24.475
2333.21  38.781  24.475
2333.71  38.717  24.506
2334.21  38.845  24.475
2334.71  38.781  24.475
2335.21  38.781  24.475
2335.71  38.781  24.475
2336.21  38.717  24.475
2336.71  38.781  24.536
2337.21  38.781  24.475
2337.71  38.781  24.444
2338.21  38.781  24.444
2338.71  38.717  24.475
2339.21  38.717  24.475
2339.71  38.653  24.444
2340.21  38.781  24.444
2340.71  38.653  24.475
2341.21  38.717  24.506
2341.71  38.845  24.506
2342.21  38.717  24.506
2342.71  38.717  24.475
2343.21  38.717  24.475
2343.71  38.717  24.475
2344.21  38.781  24.475
2344.71  38.717  24.475
2345.21  38.781  24.475
2345.71  38.717  24.475
2346.21  38.781  24.506
2346.71  38.717  24.506
2347.21  38.781  24.475
2347.71  38.717  24.444
2348.21  38.781  24.475
2348.71  38.717  24.475
2349.21  38.781  24.506
2349.71  38.909  24.475
2350.21  38.717  24.506
2350.71  38.781  24.475
2351.21  38.717  24.475
2351.71  38.781  24.536
2352.21  38.717  24.506
2352.71  38.717  24.475
2353.21  38.781  24.475
2353.71  38.717  24.506
2354.21  38.781  24.506
2354.71  38.781  24.475
2355.21  38.781  24.475
2355.71  38.653  24.475
2356.21  38.781  24.506
2356.71  38.717  24.475
2357.21  38.781  24.475
2357.71  38.781  24.506
2358.21  38.781  24.475
2358.71  38.781  24.475
2359.21  38.781  24.506
2359.71  38.717  24.506
2360.21  38.781  24.506
2360.71  38.845  24.475
2361.21  38.781  24.475
2361.71  38.781  24.475
2362.21  38.781  24.506
2362.71  38.845  24.475
2363.21  38.717  24.475
2363.71  38.781  24.475
2364.21  38.781  24.475
2364.71  38.845  24.475
2365.21  38.845  24.475
2365.71  38.717  24.536
2366.21  38.781  24.475
2366.71  38.845  24.475
2367.21  38.717  24.475
2367.71  38.781  24.475
2368.21  38.781  24.444
2368.71  38.781  24.536
2369.21  38.781  24.475
2369.71  38.845  24.506
2370.21  38.781  24.506
2370.71  38.781  24.475
2371.21  38.845  24.475
2371.71  38.653  24.475
2372.21  38.845  24.506
2372.71  38.845  24.475
2373.21  38.781  24.506
2373.71  38.781  24.475
2374.21  38.781  24.475
2374.71  38.781  24.506
2375.21  38.781  24.475
2375.71  38.845  24.506
2376.21  38.781  24.475
2376.71  38.845  24.475
2377.21  38.781  24.506
2377.71  38.845  24.475
2378.21  38.781  24.475
2378.71  38.845  24.506
2379.21  38.781  24.475
2379.71  38.845  24.475
2380.21  38.781  24.506
2380.71  38.781  24.506
2381.21  38.845  24.475
2381.71  38.845  24.475
2382.21  38.781  24.444
2382.71  38.781  24.506
2383.21  38.845  24.475
2383.71  38.781  24.475
2384.21  38.781  24.475
2384.71  38.717  24.506
2385.21  38.845  24.475
2385.71  38.781  24.475
2386.21  38.781  24.475
2386.71  38.781  24.444
2387.21  38.781  24.475
2387.71  38.845  24.475
2388.21  38.781  24.475
2388.71  38.781  24.506
2389.21  38.845  24.506
2389.71  38.781  24.475
2390.21  38.781  24.444
2390.71  38.845  24.475
2391.21  38.717  24.475
2391.71  38.845  24.444
2392.21  38.781  24.475
2392.71  38.781  24.475
2393.21  38.781  24.506
2393.71  38.781  24.444
2394.21  38.717  24.506
2394.71  38.781  24.506
2395.21  38.781  24.475
2395.71  38.845  24.506
2396.21  38.845  24.475
2396.71  38.781  24.506
2397.21  38.717  24.475
2397.71  38.781  24.506
2398.21  38.717  24.444
2398.71  38.781  24.444
2399.21  38.781  24.506
2399.71  38.781  24.475
2400.21  38.717  24.506
2400.71  38.845  24.536
2401.21  38.909  24.475
2401.71  38.717  24.475
2402.21  38.845  24.536
2402.71  38.845  24.475
2403.21  38.717  24.475
2403.71  38.781  24.506
2404.21  38.781  24.475
2404.71  38.781  24.506
2405.21  38.781  24.475
2405.71  38.845  24.475
2406.21  38.845  24.506
2406.71  38.845  24.506
2407.21  38.653  24.506
2407.71  38.781  24.506
2408.21  38.845  24.506
2408.71  38.781  24.506
2409.21  38.781  24.475
2409.71  38.781  24.536
2410.21  38.909  24.506
2410.71  38.845  24.475
2411.21  38.781  24.506
2411.71  38.845  24.506
2412.21  38.717  24.506
2412.71  38.781  24.475
2413.21  38.781  24.475
2413.71  38.781  24.444
2414.21  38.717  24.506
2414.71  38.781  24.506
2415.21  38.845  24.506
2415.71  38.845  24.475
2416.21  38.909  24.506
2416.71  38.781  24.475
2417.21  38.845  24.475
2417.71  38.781  24.506
2418.21  38.845  24.475
2418.71  38.781  24.506
2419.21  38.845  24.475
2419.71  38.845  24.506
2420.21  38.845  24.506
2420.71  38.781  24.475
2421.21  38.781  24.506
2421.71  38.781  24.506
2422.21  38.845  24.475
2422.71  38.845  24.475
2423.21  38.845  24.475
2423.72  38.845  24.475
2424.22  38.781  24.475
2424.72  38.845  24.506
2425.22  38.845  24.506
2425.72  38.845  24.506
2426.22  38.781  24.475
2426.72  38.845  24.506
2427.22  38.781  24.506
2427.72  38.845  24.475
2428.22  38.845  24.506
2428.72  38.781  24.506
2429.22  38.845  24.475
2429.72  38.781  24.475
2430.22  38.781  24.475
2430.72  38.845  24.444
2431.22  38.845  24.475
2431.72  38.845  24.475
2432.22  38.781  24.475
2432.72  38.909  24.475
2433.22  38.845  24.506
2433.72  38.909  24.506
2434.22  38.781  24.506
2434.72  38.845  24.506
2435.22  38.845  24.475
2435.72  38.845  24.506
2436.22  38.845  24.506
2436.72  38.845  24.506
2437.22  38.781  24.475
2437.72  38.781  24.475
2438.22  38.781  24.475
2438.72  38.653  24.475
2439.22  38.781  24.475
2439.72  38.845  24.444
2440.22  38.845  24.475
2440.72  38.909  24.506
2441.22  38.845  24.506
2441.72  38.909  24.506
2442.22  38.845  24.475
2442.72  38.781  24.475
2443.22  38.781  24.475
2443.72  38.845  24.506
2444.22  38.909  24.475
2444.72  38.845  24.506
2445.22  38.845  24.506
2445.72  38.781  24.506
2446.22  38.781  24.475
2446.72  38.845  24.475
2447.22  38.845  24.475
2447.72  38.845  24.506
2448.22  38.845  24.444
2448.72  38.845  24.475
2449.22  38.909  24.506
2449.72  38.845  24.506
2450.22  38.845  24.475
2450.72  38.909  24.506
2451.22  38.845  24.475
2451.72  38.845  24.506
2452.22  38.845  24.475
2452.72  38.845  24.475
2453.22  38.845  24.475
2453.72  38.781  24.506
2454.22  38.781  24.506
2454.72  38.845  24.475
2455.22  38.781  24.444
2455.72  38.845  24.444
2456.22  38.845  24.506
2456.72  38.781  24.506
2457.22  38.845  24.506
2457.72  38.845  24.506
2458.22  38.781  24.506
2458.72  38.909  24.506
2459.22  38.781  24.506
2459.72  38.845  24.506
2460.22  38.909  24.475
2460.72  38.781  24.506
2461.22  38.845  24.536
2461.72  38.845  24.506
2462.22  38.781  24.506
2462.72  38.845  24.506
2463.22  38.781  24.536
2463.72  38.781  24.506
2464.22  38.845  24.536
2464.72  38.845  24.506
2465.22  38.909  24.475
2465.72  38.781  24.506
2466.22  38.845  24.506
2466.72  38.845  24.536
2467.22  38.909  24.475
2467.72  38.845  24.536
2468.22  38.845  24.475
2468.72  38.845  24.506
2469.22  38.845  24.475
2469.72  38.973  24.506
2470.22  38.909  24.475
2470.72  38.845  24.506
2471.22  38.845  24.506
2471.72  38.781  24.506
2472.22  38.845  24.506
2472.72  38.781  24.506
2473.22  38.845  24.506
2473.72  38.845  24.475
2474.22  38.845  24.506
2474.72  38.845  24.506
2475.22  38.845  24.506
2475.72  38.845  24.506
2476.22  38.909  24.536
2476.72  38.781  24.506
2477.22  38.845  24.506
2477.72  38.845  24.506
2478.22  38.845  24.475
2478.72  38.845  24.506
2479.22  38.973  24.506
2479.72  38.909  24.475
2480.22  38.781  24.475
2480.72  38.717  24.506
2481.22  38.845  24.506
2481.72  38.909  24.506
2482.22  38.845  24.506
2482.72  38.845  24.506
2483.22  38.781  24.506
2483.72  38.845  24.567
2484.22  38.845  24.506
2484.72  38.845  24.567
2485.22  38.909  24.506
2485.72  38.845  24.536
2486.22  38.845  24.567
2486.72  38.845  24.506
2487.22  38.845  24.475
2487.72  38.781  24.506
2488.22  38.909  24.567
2488.72  38.781  24.506
2489.22  38.781  24.475
2489.72  38.845  24.506
2490.22  38.845  24.536
2490.72  38.909  24.506
2491.22  38.909  24.506
2491.72  38.909  24.506
2492.22  38.909  24.475
2492.72  38.845  24.444
2493.22  38.845  24.506
2493.72  38.845  24.475
2494.22  38.845  24.475
2494.72  38.973  24.506
2495.22  38.909  24.506
2495.72  38.845  24.536
2496.22  38.845  24.506
2496.72  38.781  24.444
2497.22  38.845  24.506
2497.72  38.845  24.506
2498.22  38.909  24.506
2498.72  38.909  24.475
2499.22  38.909  24.444
2499.72  38.909  24.506
2500.22  38.909  24.506
2500.72  38.909  24.567
2501.22  38.781  24.506
2501.72  38.909  24.567
