   2.00  24.009  26.659
   2.50  24.009  26.659
   3.00  24.009  26.474
   3.50  24.009  26.659
   4.00  24.009  26.474
   4.50  24.009  26.474
   5.00  24.009  26.474
   5.50  23.983  26.659
   6.00  24.035  26.845
   6.50  24.009  26.474
   7.00  24.061  26.659
   7.50  24.009  26.659
   8.00  24.009  26.845
   8.50  24.009  26.659
   9.00  23.983  26.659
   9.50  24.009  26.474
  10.00  24.009  26.659
  10.50  23.983  26.659
  11.00  24.009  26.659
  11.50  24.035  27.030
  12.00  24.035  27.030
  12.50  24.035  27.030
  13.00  24.035  27.215
  13.50  24.035  27.215
  14.00  24.009  27.401
  14.50  24.009  27.401
  15.00  24.009  27.401
  15.50  24.009  27.586
  16.00  24.009  27.586
  16.50  24.009  27.957
  17.00  24.035  27.772
  17.50  24.009  27.957
  18.00  24.009  27.957
  18.50  24.009  28.142
  19.00  23.983  28.142
  19.50  24.009  28.142
  20.00  24.009  28.328
  20.50  24.061  28.328
  21.00  24.009  28.513
  21.50  24.009  28.328
  22.00  24.009  28.513
  22.50  24.035  28.699
  23.00  24.035  28.699
  23.50  24.035  28.513
  24.00  24.009  28.884
  24.50  24.035  28.884
  25.00  24.035  29.255
  25.50  24.061  28.884
  26.00  24.035  29.069
  26.50  24.035  29.255
  27.00  24.009  29.069
  27.50  24.009  29.069
  28.00  24.009  29.255
  28.50  24.035  29.440
  29.00  24.009  29.440
  29.50  23.983  29.440
  30.00  23.983  29.440
  30.50  23.983  29.626
  31.00  24.009  29.626
  31.50  24.035  29.626
  32.00  24.009  29.811
  32.50  24.009  29.626
  33.00  24.009  29.811
  33.50  24.009  30.098
  34.00  24.009  29.811
  34.50  24.009  29.996
  35.00  24.035  29.996
  35.50  24.035  30.098
  36.00  24.009  30.098
  36.50  24.035  29.996
  37.00  24.035  30.098
  37.50  24.009  30.198
  38.00  24.035  30.299
  38.50  24.035  30.198
  39.00  24.035  30.299
  39.50  24.035  30.299
  40.00  24.061  30.399
  40.50  24.061  30.399
  41.00  24.009  30.399
  41.50  24.035  30.499
  42.00  24.009  30.399
  42.50  24.035  30.499
  43.00  24.035  30.499
  43.50  24.035  30.499
  44.00  24.009  30.499
  44.50  24.061  30.399
  45.00  24.061  30.599
  45.50  24.061  30.499
  46.00  24.035  30.599
  46.50  24.035  30.599
  47.00  24.061  30.599
  47.51  24.035  30.599
  48.01  24.035  30.699
  48.51  24.035  30.699
  49.01  24.009  30.599
  49.51  24.009  30.699
  50.01  24.009  30.599
  50.51  24.035  30.599
  51.01  24.061  30.699
  51.51  24.061  30.699
  52.01  24.035  30.599
  52.51  24.035  30.799
  53.01  24.035  30.699
  53.51  24.035  30.799
  54.01  24.061  30.900
  54.51  24.009  31.000
  55.01  24.035  30.900
  55.51  24.035  30.900
  56.01  24.009  31.000
  56.51  24.035  30.900
  57.01  24.061  30.799
  57.51  24.035  30.699
  58.01  24.009  31.000
  58.51  24.061  31.000
  59.01  24.009  30.900
  59.51  24.035  31.000
  60.01  24.061  31.100
  60.51  24.035  31.100
  61.01  24.035  31.100
  61.51  24.035  31.200
  62.01  24.061  31.000
  62.51  24.061  31.100
  63.01  24.035  31.200
  63.51  24.009  31.200
  64.01  24.009  31.100
  64.51  24.035  31.200
  65.01  24.061  31.200
  65.51  24.061  31.300
  66.01  24.061  31.300
  66.51  24.035  31.300
  67.01  24.035  31.300
  67.51  24.035  31.300
  68.01  24.035  31.401
  68.51  24.009  31.401
  69.01  24.035  31.300
  69.51  24.009  31.401
  70.01  24.035  31.300
  70.51  24.035  31.300
  71.01  24.035  31.401
  71.51  24.061  31.501
  72.01  24.061  31.401
  72.51  24.035  31.401
  73.01  24.035  31.601
  73.51  24.061  31.401
  74.01  24.035  31.501
  74.51  24.009  31.501
  75.01  24.035  31.501
  75.51  24.061  31.501
  76.01  24.035  31.501
  76.51  24.035  31.601
  77.01  24.035  31.601
  77.51  24.061  31.601
  78.01  24.035  31.501
  78.51  24.061  31.601
  79.01  24.035  31.601
  79.51  24.035  31.601
  80.01  24.035  31.701
  80.51  24.035  31.701
  81.01  24.035  31.601
  81.51  24.087  31.701
  82.01  24.035  31.701
  82.51  24.061  31.601
  83.01  24.035  31.701
  83.51  24.035  31.701
  84.01  24.061  31.601
  84.51  24.061  31.701
  85.01  24.035  31.701
  85.51  24.061  31.801
  86.01  24.061  31.801
  86.51  24.035  31.801
  87.01  24.035  31.801
  87.51  24.035  31.801
  88.01  24.061  31.801
  88.51  24.035  31.801
  89.01  24.035  31.801
  89.51  24.035  31.801
  90.01  24.035  31.901
  90.51  24.035  31.801
  91.01  24.061  31.901
  91.51  24.035  32.002
  92.01  24.061  32.002
  92.51  24.061  32.002
  93.01  24.087  31.901
  93.51  24.035  31.801
  94.01  24.035  32.002
  94.51  24.035  31.901
  95.01  24.035  31.901
  95.51  24.061  31.901
  96.01  24.035  32.002
  96.51  24.061  31.901
  97.01  24.035  32.002
  97.51  24.061  32.002
  98.01  24.035  32.002
  98.51  24.035  32.002
  99.01  24.061  32.102
  99.51  24.035  32.102
 100.01  24.061  32.102
 100.51  24.035  32.202
 101.01  24.061  32.002
 101.51  24.035  32.102
 102.01  24.035  32.002
 102.51  24.035  32.102
 103.01  24.061  32.102
 103.51  24.035  32.202
 104.01  24.061  32.102
 104.51  24.061  32.102
 105.01  24.009  32.202
 105.51  24.087  32.202
 106.01  24.061  32.202
 106.51  24.009  32.202
 107.01  24.061  32.202
 107.51  24.035  32.302
 108.01  24.035  32.202
 108.51  24.035  32.202
 109.01  24.061  32.202
 109.51  24.009  32.202
 110.01  24.035  32.202
 110.51  24.009  32.202
 111.01  24.035  32.302
 111.51  24.087  32.302
 112.01  24.035  32.202
 112.51  24.061  32.302
 113.01  24.087  32.302
 113.51  24.061  32.402
 114.01  24.035  32.202
 114.51  24.061  32.302
 115.01  24.035  32.302
 115.51  24.035  32.402
 116.01  24.061  32.302
 116.51  24.087  32.402
 117.01  24.061  32.402
 117.51  24.061  32.402
 118.01  24.061  32.402
 118.51  24.061  32.503
 119.01  24.061  32.503
 119.51  24.061  32.402
 120.01  24.061  32.402
 120.51  24.061  32.503
 121.01  24.061  32.503
 121.51  24.035  32.402
 122.01  24.061  32.503
 122.51  24.009  32.402
 123.01  24.061  32.503
 123.51  24.035  32.402
 124.01  24.061  32.402
 124.51  24.035  32.503
 125.01  24.035  32.503
 125.51  24.035  32.503
 126.01  24.087  32.503
 126.51  24.061  32.603
 127.01  24.061  32.703
 127.51  24.061  32.603
 128.01  24.035  32.603
 128.51  24.061  32.603
 129.01  24.035  32.603
 129.51  24.061  32.503
 130.01  24.035  32.603
 130.51  24.035  32.603
 131.01  24.061  32.603
 131.51  24.035  32.402
 132.01  24.061  32.603
 132.51  24.009  32.603
 133.01  24.061  32.603
 133.51  24.061  32.703
 134.01  24.009  32.603
 134.51  24.061  32.803
 135.01  24.035  32.703
 135.51  24.035  32.703
 136.01  24.035  32.703
 136.51  24.035  32.603
 137.01  24.061  32.703
 137.51  24.035  32.703
 138.01  24.061  32.703
 138.51  24.166  32.703
 139.01  24.061  32.703
 139.51  24.061  32.703
 140.01  24.087  32.703
 140.51  24.087  32.703
 141.01  24.061  32.703
 141.51  24.061  32.803
 142.01  24.061  32.803
 142.51  24.061  32.803
 143.01  24.087  32.803
 143.51  24.061  32.803
 144.01  24.061  32.803
 144.51  24.061  32.803
 145.01  24.061  32.903
 145.51  24.061  32.703
 146.01  24.061  32.903
 146.51  24.061  32.803
 147.01  24.061  32.803
 147.51  24.087  32.803
 148.01  24.087  32.903
 148.51  24.061  32.903
 149.01  24.061  32.903
 149.51  24.061  32.803
 150.01  24.061  33.003
 150.51  24.061  32.903
 151.01  24.061  33.003
 151.51  24.035  33.003
 152.01  24.061  32.903
 152.51  24.035  33.104
 153.01  24.035  32.903
 153.51  24.061  32.903
 154.01  24.061  33.003
 154.51  24.035  33.003
 155.01  24.061  33.003
 155.51  24.087  33.003
 156.01  24.061  32.903
 156.51  24.061  32.903
 157.01  24.061  32.903
 157.51  24.035  33.003
 158.01  24.061  33.104
 158.51  24.035  33.003
 159.01  24.061  33.003
 159.51  24.061  33.003
 160.01  24.087  33.003
 160.51  24.035  33.104
 161.01  24.035  33.003
 161.51  24.035  33.104
 162.01  24.061  33.003
 162.51  24.087  33.304
 163.01  24.087  33.104
 163.51  24.061  33.104
 164.01  24.061  33.003
 164.51  24.035  32.903
 165.01  24.035  33.003
 165.51  24.061  33.104
 166.01  24.061  33.003
 166.51  24.061  33.104
 167.01  24.087  33.104
 167.51  24.087  33.104
 168.01  24.061  33.104
 168.51  24.061  33.104
 169.01  24.061  33.104
 169.51  24.087  33.204
 170.01  24.061  33.204
 170.51  24.087  33.304
 171.01  24.061  33.104
 171.52  24.061  33.104
 172.02  24.087  33.204
 172.52  24.061  33.204
 173.02  24.087  33.104
 173.52  24.009  33.204
 174.02  24.061  33.104
 174.52  24.087  33.304
 175.02  24.087  33.104
 175.52  24.061  33.304
 176.02  24.035  33.304
 176.52  24.035  33.304
 177.02  24.061  33.204
 177.52  24.061  33.304
 178.02  24.061  33.404
 178.52  24.061  33.204
 179.02  24.113  33.304
 179.52  24.087  33.304
 180.02  24.087  33.304
 180.52  24.061  33.304
 181.02  24.061  33.304
 181.52  24.087  33.304
 182.02  24.061  33.304
 182.52  24.087  33.304
 183.02  24.061  33.304
 183.52  24.061  33.404
 184.02  24.061  33.404
 184.52  24.061  33.404
 185.02  24.061  33.304
 185.52  24.061  33.304
 186.02  24.061  33.404
 186.52  24.087  33.404
 187.02  24.035  33.404
 187.52  24.061  33.404
 188.02  24.061  33.404
 188.52  24.113  33.304
 189.02  24.035  33.304
 189.52  24.061  33.204
 190.02  24.061  33.404
 190.52  24.061  33.404
 191.02  24.061  33.504
 191.52  24.087  33.404
 192.02  24.087  33.404
 192.52  24.061  33.504
 193.02  24.087  33.404
 193.52  24.087  33.504
 194.02  24.087  33.504
 194.52  24.061  33.404
 195.02  24.061  33.504
 195.52  24.087  33.404
 196.02  24.061  33.404
 196.52  24.061  33.504
 197.02  24.087  33.504
 197.52  24.087  33.504
 198.02  24.087  33.404
 198.52  24.061  33.705
 199.02  24.061  33.504
 199.52  24.087  33.504
 200.02  24.087  33.604
 200.52  24.061  33.504
 201.02  24.035  33.604
 201.52  24.061  33.504
 202.02  24.113  33.304
 202.52  24.061  33.604
 203.02  24.087  33.504
 203.52  24.035  33.504
 204.02  24.061  33.604
 204.52  24.061  33.604
 205.02  24.061  33.604
 205.52  24.087  33.604
 206.02  24.061  33.604
 206.52  24.087  33.604
 207.02  24.061  33.705
 207.52  24.087  33.705
 208.02  24.061  33.604
 208.52  24.061  33.604
 209.02  24.061  33.604
 209.52  24.061  33.604
 210.02  24.061  33.604
 210.52  24.061  33.604
 211.02  24.061  33.604
 211.52  24.035  33.604
 212.02  24.061  33.604
 212.52  24.035  33.604
 213.02  24.087  33.604
 213.52  24.087  33.805
 214.02  24.035  33.705
 214.52  24.061  33.805
 215.02  24.087  33.604
 215.52  24.087  33.805
 216.02  24.087  33.705
 216.52  24.087  33.604
 217.02  24.087  33.604
 217.52  24.061  33.805
 218.02  24.061  33.705
 218.52  24.087  33.705
 219.02  24.087  33.805
 219.52  24.087  33.805
 220.02  24.061  33.805
 220.52  24.087  33.705
 221.02  24.061  33.705
 221.52  24.061  33.705
 222.02  24.061  33.805
 222.52  24.035  33.805
 223.02  24.087  33.905
 223.52  24.087  33.805
 224.02  24.087  33.805
 224.52  24.087  33.805
 225.02  24.087  33.805
 225.52  24.087  33.705
 226.02  24.087  33.705
 226.52  24.087  33.705
 227.02  24.035  33.805
 227.52  24.035  33.805
 228.02  24.087  33.905
 228.52  24.087  33.805
 229.02  24.087  33.805
 229.52  24.035  33.905
 230.02  24.061  33.905
 230.52  24.087  33.905
 231.02  24.035  33.805
 231.52  24.035  33.805
 232.02  24.113  34.005
 232.52  24.087  33.805
 233.02  24.061  33.905
 233.52  24.087  34.005
 234.02  24.087  33.805
 234.52  24.061  33.905
 235.02  24.035  33.905
 235.52  24.087  33.905
 236.02  24.061  33.805
 236.52  24.061  34.005
 237.02  24.087  33.905
 237.52  24.061  34.005
 238.02  24.061  34.005
 238.52  24.061  34.105
 239.02  24.113  33.905
 239.52  24.061  34.005
 240.02  24.061  34.005
 240.52  24.061  33.905
 241.02  24.087  33.805
 241.52  24.061  33.905
 242.02  24.087  34.005
 242.52  24.061  33.905
 243.02  24.061  34.105
 243.52  24.087  34.005
 244.02  24.113  34.005
 244.52  24.061  33.905
 245.02  24.061  33.905
 245.52  24.087  34.005
 246.02  24.087  34.005
 246.52  24.061  34.005
 247.02  24.087  34.005
 247.52  24.087  34.005
 248.02  24.061  34.105
 248.52  24.061  34.005
 249.02  24.087  34.105
 249.52  24.061  34.105
 250.02  24.061  34.005
 250.52  24.087  34.105
 251.02  24.061  34.005
 251.52  24.061  34.105
 252.02  24.061  34.105
 252.52  24.087  34.105
 253.02  24.087  34.005
 253.52  24.087  34.105
 254.02  24.087  34.105
 254.52  24.061  34.206
 255.02  24.061  34.206
 255.52  24.113  34.105
 256.02  24.113  34.206
 256.52  24.087  34.105
 257.02  24.087  34.206
 257.52  24.061  34.206
 258.02  24.087  34.206
 258.52  24.087  34.105
 259.02  24.087  34.206
 259.52  24.087  34.105
 260.02  24.087  34.105
 260.52  24.087  34.206
 261.02  24.061  34.206
 261.52  24.087  34.206
 262.02  24.061  34.206
 262.52  24.087  34.306
 263.02  24.061  34.206
 263.52  24.087  34.005
 264.02  24.087  34.206
 264.52  24.087  34.206
 265.02  24.035  34.306
 265.52  24.087  34.306
 266.02  24.061  34.206
 266.52  24.061  34.206
 267.02  24.061  34.206
 267.52  24.087  34.206
 268.02  24.061  34.105
 268.52  24.087  34.206
 269.02  24.061  34.206
 269.52  24.087  34.306
 270.02  24.087  34.206
 270.52  24.087  34.206
 271.02  24.087  34.306
 271.52  24.113  34.206
 272.02  24.061  34.306
 272.52  24.087  34.105
 273.02  24.061  34.306
 273.52  24.061  34.306
 274.02  24.087  34.306
 274.52  24.061  34.306
 275.02  24.087  34.306
 275.52  24.087  34.406
 276.02  24.061  34.306
 276.52  24.087  34.206
 277.02  24.061  34.306
 277.52  24.087  34.406
 278.02  24.087  34.406
 278.52  24.087  34.306
 279.02  24.087  34.306
 279.52  24.061  34.306
 280.02  24.113  34.406
 280.52  24.087  34.306
 281.02  24.087  34.406
 281.52  24.087  34.206
 282.02  24.087  34.306
 282.52  24.061  34.306
 283.02  24.087  34.306
 283.52  24.061  34.406
 284.02  24.061  34.306
 284.52  24.087  34.306
 285.03  24.087  34.406
 285.53  24.087  34.606
 286.03  24.087  34.406
 286.53  24.087  34.406
 287.03  24.061  34.406
 287.53  24.087  34.406
 288.03  24.061  34.406
 288.53  24.061  34.406
 289.03  24.087  34.306
 289.53  24.113  34.306
 290.03  24.087  34.306
 290.53  24.113  34.506
 291.03  24.087  34.406
 291.53  24.087  34.506
 292.03  24.087  34.506
 292.53  24.061  34.506
 293.03  24.087  34.506
 293.53  24.061  34.506
 294.03  24.087  34.506
 294.53  24.061  34.406
 295.03  24.087  34.506
 295.53  24.087  34.406
 296.03  24.087  34.406
 296.53  24.087  34.406
 297.03  24.061  34.506
 297.53  24.061  34.506
 298.03  24.087  34.606
 298.53  24.061  34.506
 299.03  24.087  34.406
 299.53  24.087  34.406
 300.03  24.113  34.506
 300.53  24.087  34.406
 301.03  24.087  34.506
 301.53  24.061  34.506
 302.03  24.087  34.506
 302.53  24.087  34.606
 303.03  24.061  34.606
 303.53  24.113  34.506
 304.03  24.061  34.506
 304.53  24.061  34.506
 305.03  24.061  34.506
 305.53  24.061  34.506
 306.03  24.061  34.506
 306.53  24.087  34.606
 307.03  24.087  34.606
 307.53  24.061  34.606
 308.03  24.087  34.606
 308.53  24.087  34.506
 309.03  24.061  34.406
 309.53  24.113  34.606
 310.03  24.113  34.506
 310.53  24.087  34.606
 311.03  24.113  34.506
 311.53  24.087  34.606
 312.03  24.087  34.807
 312.53  24.087  34.506
 313.03  24.087  34.606
 313.53  24.087  34.606
 314.03  24.140  34.606
 314.53  24.087  34.606
 315.03  24.061  34.606
 315.53  24.087  34.706
 316.03  24.061  34.506
 316.53  24.087  34.606
 317.03  24.087  34.706
 317.53  24.087  34.606
 318.03  24.113  34.606
 318.53  24.087  34.506
 319.03  24.087  34.606
 319.53  24.087  34.706
 320.03  24.087  34.807
 320.53  24.113  34.807
 321.03  24.087  34.706
 321.53  24.087  34.706
 322.03  24.087  34.706
 322.53  24.087  34.706
 323.03  24.087  34.706
 323.53  24.087  34.807
 324.03  24.061  34.606
 324.53  24.113  34.907
 325.03  24.113  34.807
 325.53  24.087  34.706
 326.03  24.087  34.706
 326.53  24.140  34.706
 327.03  24.087  34.706
 327.53  24.087  34.706
 328.03  24.087  34.706
 328.53  24.113  34.807
 329.03  24.087  34.807
 329.53  24.113  34.706
 330.03  24.087  34.706
 330.53  24.087  34.706
 331.03  24.087  34.706
 331.53  24.113  34.706
 332.03  24.087  34.807
 332.53  24.087  34.706
 333.03  24.113  34.807
 333.53  24.113  34.807
 334.03  24.061  34.706
 334.53  24.061  34.706
 335.03  24.113  34.807
 335.53  24.087  34.706
 336.03  24.087  34.807
 336.53  24.061  34.807
 337.03  24.087  34.807
 337.53  24.087  34.706
 338.03  24.061  34.907
 338.53  24.061  34.807
 339.03  24.087  34.907
 339.53  24.087  34.907
 340.03  24.113  34.807
 340.53  24.087  34.807
 341.03  24.087  34.807
 341.53  24.087  34.907
 342.03  24.087  34.807
 342.53  24.087  34.907
 343.03  24.113  34.706
 343.53  24.087  34.907
 344.03  24.113  34.807
 344.53  24.113  34.907
 345.03  24.061  34.807
 345.53  24.113  34.907
 346.03  24.087  34.907
 346.53  24.140  34.807
 347.03  24.113  34.907
 347.53  24.087  34.907
 348.03  24.087  35.078
 348.53  24.087  34.907
 349.03  24.087  34.907
 349.53  24.087  34.807
 350.03  24.087  34.907
 350.53  24.087  34.907
 351.03  24.087  35.005
 351.53  24.087  34.907
 352.03  24.087  34.907
 352.53  24.087  35.005
 353.03  24.087  34.907
 353.53  24.087  35.005
 354.03  24.113  34.907
 354.53  24.087  35.005
 355.03  24.087  34.907
 355.53  24.113  34.907
 356.03  24.035  34.907
 356.53  24.087  34.907
 357.03  24.113  34.907
 357.53  24.113  34.907
 358.03  24.087  35.005
 358.53  24.113  35.005
 359.03  24.087  34.907
 359.53  24.140  34.907
 360.03  24.061  35.005
 360.53  24.061  35.005
 361.03  24.113  35.078
 361.53  24.192  35.005
 362.03  24.087  34.907
 362.53  24.087  34.907
 363.03  24.087  34.907
 363.53  24.087  34.907
 364.03  24.087  35.005
 364.53  24.087  34.907
 365.03  24.087  35.005
 365.53  24.113  35.005
 366.03  24.113  35.078
 366.53  24.087  34.907
 367.03  24.113  35.005
 367.53  24.061  35.005
 368.03  24.113  34.907
 368.53  24.113  35.005
 369.03  24.087  35.005
 369.53  24.087  34.907
 370.03  24.113  35.078
 370.53  24.113  35.005
 371.03  24.087  35.005
 371.53  24.087  35.005
 372.03  24.087  35.005
 372.53  24.087  35.005
 373.03  24.113  35.005
 373.53  24.113  34.807
 374.03  24.087  35.078
 374.53  24.087  35.078
 375.03  24.087  35.078
 375.53  24.087  35.078
 376.03  24.087  35.078
 376.53  24.113  35.078
 377.03  24.087  35.005
 377.53  24.087  35.078
 378.03  24.087  35.078
 378.53  24.087  35.152
 379.03  24.113  35.005
 379.53  24.087  35.005
 380.03  24.113  35.078
 380.53  24.087  35.078
 381.03  24.087  35.005
 381.53  24.113  35.005
 382.03  24.087  35.078
 382.53  24.113  35.005
 383.03  24.113  35.078
 383.53  24.113  35.078
 384.03  24.087  35.078
 384.53  24.087  35.078
 385.03  24.087  35.078
 385.53  24.087  35.078
 386.03  24.061  35.005
 386.53  24.087  35.078
 387.04  24.087  35.078
 387.54  24.087  35.078
 388.04  24.087  35.078
 388.54  24.113  35.005
 389.04  24.087  35.078
 389.54  24.140  35.078
 390.04  24.087  35.005
 390.54  24.113  35.078
 391.04  24.087  35.225
 391.54  24.087  35.152
 392.04  24.087  35.152
 392.54  24.087  35.152
 393.04  24.061  35.152
 393.54  24.087  35.298
 394.04  24.140  35.152
 394.54  24.087  35.152
 395.04  24.087  35.152
 395.54  24.087  35.078
 396.04  24.087  35.152
 396.54  24.061  35.078
 397.04  24.087  35.152
 397.54  24.087  35.152
 398.04  24.087  35.152
 398.54  24.087  35.225
 399.04  24.087  35.152
 399.54  24.113  35.225
 400.04  24.087  35.152
 400.54  24.061  35.225
 401.04  24.087  35.152
 401.54  24.087  35.152
 402.04  24.087  35.152
 402.54  24.087  35.152
 403.04  24.087  35.152
 403.54  24.087  35.225
 404.04  24.087  35.152
 404.54  24.113  35.152
 405.04  24.087  35.225
 405.54  24.061  35.372
 406.04  24.087  35.225
 406.54  24.087  35.152
 407.04  24.113  35.152
 407.54  24.113  35.225
 408.04  24.140  35.152
 408.54  24.087  35.225
 409.04  24.113  35.152
 409.54  24.087  35.298
 410.04  24.087  35.225
 410.54  24.087  35.225
 411.04  24.061  35.225
 411.54  24.113  35.225
 412.04  24.087  35.225
 412.54  24.113  35.225
 413.04  24.087  35.225
 413.54  24.087  35.298
 414.04  24.113  35.298
 414.54  24.087  35.225
 415.04  24.140  35.225
 415.54  24.113  35.225
 416.04  24.113  35.225
 416.54  24.087  35.152
 417.04  24.113  35.298
 417.54  24.087  35.225
 418.04  24.087  35.298
 418.54  24.061  35.298
 419.04  24.113  35.225
 419.54  24.113  35.298
 420.04  24.087  35.225
 420.54  24.113  35.225
 421.04  24.087  35.225
 421.54  24.113  35.298
 422.04  24.113  35.298
 422.54  24.087  35.225
 423.04  24.087  35.298
 423.54  24.113  35.298
 424.04  24.087  35.225
 424.54  24.087  35.298
 425.04  24.087  35.298
 425.54  24.113  35.372
 426.04  24.087  35.445
 426.54  24.113  35.298
 427.04  24.113  35.298
 427.54  24.087  35.298
 428.04  24.087  35.298
 428.54  24.113  35.298
 429.04  24.113  35.298
 429.54  24.113  35.298
 430.04  24.113  35.298
 430.54  24.113  35.298
 431.04  24.113  35.298
 431.54  24.113  35.298
 432.04  24.113  35.298
 432.54  24.113  35.372
 433.04  24.113  35.298
 433.54  24.113  35.372
 434.04  24.087  35.372
 434.54  24.113  35.298
 435.04  24.113  35.372
 435.54  24.113  35.298
 436.04  24.140  35.372
 436.54  24.113  35.298
 437.04  24.087  35.298
 437.54  24.113  35.298
 438.04  24.113  35.298
 438.54  24.113  35.298
 439.04  24.113  35.372
 439.54  24.087  35.372
 440.04  24.113  35.372
 440.54  24.113  35.372
 441.04  24.113  35.298
 441.54  24.140  35.372
 442.04  24.113  35.445
 442.54  24.140  35.445
 443.04  24.113  35.445
 443.54  24.113  35.298
 444.04  24.140  35.298
 444.54  24.087  35.445
 445.04  24.140  35.372
 445.54  24.087  35.372
 446.04  24.113  35.372
 446.54  24.113  35.372
 447.04  24.113  35.372
 447.54  24.113  35.372
 448.04  24.113  35.298
 448.54  24.113  35.445
 449.04  24.140  35.372
 449.54  24.113  35.372
 450.04  24.140  35.372
 450.54  24.087  35.298
 451.04  24.113  35.372
 451.54  24.113  35.445
 452.04  24.113  35.372
 452.54  24.113  35.372
 453.04  24.113  35.372
 453.54  24.087  35.445
 454.04  24.087  35.372
 454.54  24.087  35.372
 455.04  24.113  35.372
 455.54  24.113  35.445
 456.04  24.113  35.445
 456.54  24.113  35.372
 457.04  24.113  35.372
 457.54  24.113  35.518
 458.04  24.087  35.518
 458.54  24.113  35.518
 459.04  24.113  35.445
 459.54  24.113  35.518
 460.04  24.087  35.445
 460.54  24.087  35.445
 461.04  24.087  35.445
 461.54  24.087  35.518
 462.04  24.113  35.372
 462.54  24.113  35.445
 463.04  24.113  35.445
 463.54  24.113  35.445
 464.04  24.113  35.445
 464.54  24.061  35.445
 465.04  24.061  35.445
 465.54  24.113  35.445
 466.04  24.113  35.445
 466.54  24.087  35.445
 467.04  24.087  35.518
 467.54  24.113  35.445
 468.04  24.113  35.445
 468.54  24.087  35.372
 469.04  24.113  35.445
 469.54  24.087  35.518
 470.04  24.113  35.518
 470.54  24.113  35.445
 471.04  24.087  35.518
 471.54  24.113  35.518
 472.04  24.113  35.445
 472.54  24.113  35.518
 473.04  24.113  35.518
 473.54  24.140  35.445
 474.04  24.113  35.445
 474.54  24.113  35.518
 475.04  24.087  35.518
 475.54  24.140  35.518
 476.04  24.113  35.518
 476.54  24.087  35.518
 477.04  24.113  35.445
 477.54  24.113  35.518
 478.04  24.113  35.518
 478.54  24.087  35.518
 479.04  24.140  35.518
 479.54  24.113  35.445
 480.04  24.113  35.518
 480.54  24.140  35.518
 481.04  24.087  35.592
 481.54  24.113  35.518
 482.04  24.113  35.518
 482.54  24.113  35.445
 483.04  24.087  35.518
 483.54  24.113  35.518
 484.04  24.113  35.592
 484.54  24.113  35.592
 485.04  24.113  35.518
 485.54  24.113  35.592
 486.04  24.113  35.518
 486.54  24.113  35.518
 487.04  24.140  35.518
 487.54  24.087  35.518
 488.04  24.113  35.518
 488.54  24.113  35.518
 489.04  24.113  35.518
 489.54  24.087  35.592
 490.04  24.113  35.518
 490.54  24.113  35.592
 491.04  24.113  35.518
 491.54  24.113  35.592
 492.04  24.087  35.592
 492.54  24.087  35.592
 493.04  24.087  35.592
 493.54  24.113  35.592
 494.04  24.087  35.665
 494.54  24.113  35.592
 495.04  24.113  35.592
 495.54  24.113  35.518
 496.04  24.113  35.592
 496.54  24.113  35.592
 497.04  24.113  35.592
 497.54  24.113  35.592
 498.04  24.113  35.665
 498.54  24.087  35.592
 499.04  24.113  35.592
 499.54  24.113  35.592
 500.05  24.113  35.592
 500.55  24.140  35.665
 501.05  24.113  35.665
 501.55  24.140  35.665
 502.05  24.113  35.518
 502.55  24.113  35.592
 503.05  24.113  35.592
 503.55  24.113  35.592
 504.05  24.113  35.518
 504.55  24.113  35.665
 505.05  24.113  35.592
 505.55  24.113  35.592
 506.05  24.113  35.592
 506.55  24.113  35.738
 507.05  24.140  35.665
 507.55  24.140  35.592
 508.05  24.113  35.592
 508.55  24.113  35.665
 509.05  24.113  35.665
 509.55  24.140  35.665
 510.05  24.113  35.665
 510.55  24.113  35.665
 511.05  24.140  35.665
 511.55  24.087  35.592
 512.05  24.087  35.592
 512.55  24.140  35.665
 513.05  24.140  35.665
 513.55  24.140  35.592
 514.05  24.113  35.665
 514.55  24.113  35.665
 515.05  24.113  35.665
 515.55  24.113  35.665
 516.05  24.087  35.665
 516.55  24.140  35.592
 517.05  24.113  35.665
 517.55  24.113  35.665
 518.05  24.087  35.665
 518.55  24.087  35.665
 519.05  24.113  35.665
 519.55  24.140  35.738
 520.05  24.113  35.665
 520.55  24.113  35.665
 521.05  24.113  35.665
 521.55  24.087  35.738
 522.05  24.087  35.592
 522.55  24.113  35.812
 523.05  24.113  35.592
 523.55  24.113  35.665
 524.05  24.140  35.665
 524.55  24.113  35.738
 525.05  24.087  35.665
 525.55  24.113  35.738
 526.05  24.140  35.738
 526.55  24.087  35.665
 527.05  24.113  35.665
 527.55  24.113  35.665
 528.05  24.113  35.738
 528.55  24.113  35.738
 529.05  24.113  35.738
 529.55  24.140  35.738
 530.05  24.113  35.665
 530.55  24.140  35.665
 531.05  24.113  35.665
 531.55  24.113  35.812
 532.05  24.113  35.738
 532.55  24.113  35.665
 533.05  24.140  35.738
 533.55  24.113  35.738
 534.05  24.113  35.738
 534.55  24.087  35.665
 535.05  24.113  35.665
 535.55  24.087  35.738
 536.05  24.113  35.592
 536.55  24.087  35.738
 537.05  24.113  35.665
 537.55  24.087  35.738
 538.05  24.113  35.738
 538.55  24.113  35.738
 539.05  24.113  35.738
 539.55  24.140  35.665
 540.05  24.113  35.738
 540.55  24.113  35.738
 541.05  24.140  35.665
 541.55  24.140  35.738
 542.05  24.140  35.738
 542.55  24.140  35.665
 543.05  24.113  35.738
 543.55  24.113  35.738
 544.05  24.140  35.738
 544.55  24.113  35.738
 545.05  24.113  35.738
 545.55  24.113  35.812
 546.05  24.140  35.812
 546.55  24.113  35.738
 547.05  24.087  35.812
 547.55  24.113  35.812
 548.05  24.140  35.738
 548.55  24.113  35.738
 549.05  24.140  35.738
 549.55  24.140  35.812
 550.05  24.113  35.885
 550.55  24.113  35.812
 551.05  24.113  35.738
 551.55  24.140  35.812
 552.05  24.140  35.812
 552.55  24.140  35.885
 553.05  24.192  35.738
 553.55  24.113  35.885
 554.05  24.087  35.812
 554.55  24.113  35.738
 555.05  24.140  35.812
 555.55  24.140  35.885
 556.05  24.113  35.738
 556.55  24.140  35.812
 557.05  24.113  35.812
 557.55  24.113  35.812
 558.05  24.140  35.885
 558.55  24.166  35.812
 559.05  24.166  35.812
 559.55  24.113  35.812
 560.05  24.140  35.812
 560.55  24.113  35.812
 561.05  24.113  35.885
 561.55  24.113  35.812
 562.05  24.113  35.812
 562.55  24.113  35.812
 563.05  24.087  35.885
 563.55  24.087  35.812
 564.05  24.113  35.812
 564.55  24.113  35.812
 565.05  24.166  35.885
 565.55  24.087  35.812
 566.05  24.087  35.885
 566.55  24.113  35.885
 567.05  24.113  35.812
 567.55  24.113  35.812
 568.05  24.113  35.885
 568.55  24.113  35.812
 569.05  24.113  35.885
 569.55  24.140  35.812
 570.05  24.113  35.812
 570.55  24.140  35.812
 571.05  24.113  35.885
 571.55  24.113  35.812
 572.05  24.140  35.812
 572.55  24.140  35.958
 573.05  24.113  36.032
 573.55  24.140  35.885
 574.05  24.140  35.812
 574.55  24.087  35.885
 575.05  24.140  35.885
 575.55  24.140  35.885
 576.05  24.113  35.885
 576.55  24.113  35.812
 577.05  24.113  35.885
 577.55  24.140  35.812
 578.05  24.113  35.958
 578.55  24.140  35.958
 579.05  24.113  35.812
 579.55  24.087  35.885
 580.05  24.113  35.885
 580.55  24.113  35.885
 581.05  24.113  35.958
 581.55  24.140  35.885
 582.05  24.140  35.812
 582.55  24.140  35.885
 583.05  24.140  35.885
 583.55  24.140  35.885
 584.05  24.113  35.812
 584.55  24.087  35.738
 585.05  24.087  35.958
 585.55  24.113  35.958
 586.05  24.113  35.885
 586.55  24.140  35.812
 587.05  24.140  35.958
 587.55  24.140  35.885
 588.05  24.140  35.958
 588.55  24.140  35.885
 589.05  24.113  35.958
 589.55  24.140  35.958
 590.05  24.140  35.958
 590.55  24.113  35.885
 591.05  24.087  35.885
 591.55  24.113  36.032
 592.05  24.140  35.885
 592.55  24.140  35.812
 593.05  24.087  35.885
 593.55  24.140  36.032
 594.05  24.140  35.885
 594.55  24.140  35.885
 595.05  24.113  35.885
 595.55  24.140  35.885
 596.05  24.166  36.032
 596.55  24.140  35.885
 597.05  24.140  35.958
 597.55  24.140  35.958
 598.05  24.140  35.958
 598.55  24.140  35.885
 599.05  24.113  35.958
 599.55  24.140  36.032
 600.05  24.140  35.958
 600.55  24.113  35.958
 601.05  24.140  35.958
 601.55  24.166  35.958
 602.05  24.140  35.885
 602.55  24.140  35.958
 603.05  24.166  35.958
 603.55  24.113  36.032
 604.05  24.113  36.032
 604.55  24.140  35.958
 605.05  24.140  35.958
 605.55  24.140  35.958
 606.05  24.113  35.958
 606.55  24.140  35.958
 607.05  24.166  36.032
 607.55  24.113  35.958
 608.05  24.140  35.958
 608.55  24.140  35.958
 609.05  24.140  35.958
 609.55  24.140  36.032
 610.05  24.113  35.958
 610.55  24.087  35.958
 611.05  24.140  36.032
 611.55  24.113  36.032
 612.05  24.166  35.958
 612.55  24.140  35.958
 613.05  24.140  35.958
 613.55  24.140  35.812
 614.05  24.166  36.032
 614.55  24.113  36.032
 615.05  24.113  35.958
 615.55  24.140  36.032
 616.05  24.113  35.958
 616.55  24.140  36.032
 617.05  24.140  36.032
 617.55  24.140  36.032
 618.05  24.140  36.032
 618.55  24.140  36.178
 619.05  24.113  36.105
 619.55  24.140  36.032
 620.05  24.140  36.032
 620.55  24.140  36.032
 621.05  24.140  36.105
 621.55  24.140  36.032
 622.05  24.140  36.032
 622.55  24.166  36.032
 623.05  24.166  36.032
 623.55  24.140  36.032
 624.05  24.166  36.032
 624.56  24.140  35.958
 625.06  24.140  36.032
 625.56  24.140  36.032
 626.06  24.140  36.032
 626.56  24.113  36.032
 627.06  24.113  36.105
 627.56  24.140  36.105
 628.06  24.140  36.032
 628.56  24.140  36.032
 629.06  24.166  36.032
 629.56  24.140  35.885
 630.06  24.166  35.958
 630.56  24.113  36.032
 631.06  24.140  36.105
 631.56  24.166  36.032
 632.06  24.140  36.105
 632.56  24.140  36.032
 633.06  24.140  36.032
 633.56  24.140  36.105
 634.06  24.140  36.105
 634.56  24.140  36.032
 635.06  24.140  36.032
 635.56  24.166  36.105
 636.06  24.140  36.105
 636.56  24.166  36.105
 637.06  24.140  36.032
 637.56  24.113  36.032
 638.06  24.166  36.105
 638.56  24.140  36.105
 639.06  24.166  36.032
 639.56  24.140  36.032
 640.06  24.113  36.105
 640.56  24.140  35.958
 641.06  24.140  36.032
 641.56  24.113  36.032
 642.06  24.140  36.105
 642.56  24.113  36.105
 643.06  24.140  36.105
 643.56  24.166  36.105
 644.06  24.140  36.105
 644.56  24.113  36.105
 645.06  24.140  36.032
 645.56  24.166  36.105
 646.06  24.113  36.105
 646.56  24.140  36.105
 647.06  24.140  36.032
 647.56  24.140  36.105
 648.06  24.140  36.105
 648.56  24.140  36.105
 649.06  24.113  36.032
 649.56  24.192  36.251
 650.06  24.166  36.105
 650.56  24.113  36.105
 651.06  24.218  36.105
 651.56  24.140  36.105
 652.06  24.166  36.105
 652.56  24.140  36.251
 653.06  24.140  36.178
 653.56  24.113  36.105
 654.06  24.113  36.105
 654.56  24.087  36.105
 655.06  24.140  36.032
 655.56  24.140  36.178
 656.06  24.113  36.105
 656.56  24.140  36.032
 657.06  24.166  36.105
 657.56  24.140  36.105
 658.06  24.113  36.105
 658.56  24.140  36.105
 659.06  24.140  36.105
 659.56  24.140  36.178
 660.06  24.113  36.105
 660.56  24.166  36.251
 661.06  24.140  36.105
 661.56  24.140  36.325
 662.06  24.140  36.105
 662.56  24.140  36.178
 663.06  24.140  36.105
 663.56  24.140  36.105
 664.06  24.140  36.178
 664.56  24.113  36.178
 665.06  24.140  36.105
 665.56  24.140  36.032
 666.06  24.140  36.105
 666.56  24.140  36.178
 667.06  24.140  36.178
 667.56  24.113  36.178
 668.06  24.113  36.178
 668.56  24.113  36.105
 669.06  24.140  36.178
 669.56  24.140  36.105
 670.06  24.113  36.105
 670.56  24.140  36.178
 671.06  24.140  36.251
 671.56  24.166  36.178
 672.06  24.140  36.105
 672.56  24.140  36.105
 673.06  24.140  36.105
 673.56  24.140  36.178
 674.06  24.113  36.178
 674.56  24.166  36.178
 675.06  24.140  36.251
 675.56  24.140  36.251
 676.06  24.166  36.178
 676.56  24.113  36.251
 677.06  24.140  36.251
 677.56  24.192  36.178
 678.06  24.166  36.251
 678.56  24.166  36.178
 679.06  24.140  36.251
 679.56  24.166  36.178
 680.06  24.140  36.178
 680.56  24.140  36.251
 681.06  24.140  36.325
 681.56  24.140  36.178
 682.06  24.166  36.178
 682.56  24.140  36.251
 683.06  24.140  36.178
 683.56  24.166  36.178
 684.06  24.166  36.178
 684.56  24.113  36.251
 685.06  24.166  36.178
 685.56  24.140  36.178
 686.06  24.140  36.251
 686.56  24.166  36.251
 687.06  24.140  36.178
 687.56  24.140  36.251
 688.06  24.113  36.251
 688.56  24.140  36.178
 689.06  24.113  36.178
 689.56  24.140  36.251
 690.06  24.166  36.178
 690.56  24.140  36.178
 691.06  24.140  36.178
 691.56  24.166  36.251
 692.06  24.166  36.251
 692.56  24.140  36.105
 693.06  24.140  36.251
 693.56  24.166  36.178
 694.06  24.140  36.178
 694.56  24.113  36.251
 695.06  24.140  36.251
 695.56  24.140  36.251
 696.06  24.140  36.251
 696.56  24.140  36.178
 697.06  24.140  36.251
 697.56  24.140  36.178
 698.06  24.140  36.251
 698.56  24.140  36.178
 699.06  24.140  36.251
 699.56  24.166  36.251
 700.06  24.166  36.251
 700.56  24.166  36.251
 701.06  24.140  36.178
 701.56  24.166  36.178
 702.06  24.140  36.251
 702.56  24.140  36.251
 703.06  24.113  36.251
 703.56  24.166  36.251
 704.06  24.140  36.178
 704.56  24.140  36.251
 705.06  24.140  36.251
 705.56  24.192  36.251
 706.06  24.166  36.251
 706.56  24.140  36.178
 707.06  24.140  36.251
 707.56  24.113  36.178
 708.06  24.140  36.251
 708.56  24.140  36.325
 709.06  24.140  36.251
 709.56  24.113  36.251
 710.06  24.192  36.251
 710.56  24.140  36.178
 711.06  24.140  36.251
 711.56  24.140  36.251
 712.06  24.140  36.251
 712.56  24.166  36.251
 713.06  24.140  36.398
 713.56  24.166  36.251
 714.06  24.192  36.178
 714.56  24.140  36.325
 715.06  24.140  36.325
 715.56  24.113  36.325
 716.06  24.140  36.251
 716.56  24.140  36.325
 717.06  24.140  36.251
 717.56  24.140  36.251
 718.06  24.113  36.251
 718.56  24.140  36.325
 719.06  24.140  36.325
 719.56  24.166  36.251
 720.06  24.192  36.325
 720.56  24.140  36.325
 721.06  24.140  36.251
 721.56  24.140  36.251
 722.06  24.166  36.325
 722.56  24.166  36.325
 723.06  24.140  36.325
 723.56  24.166  36.325
 724.06  24.140  36.325
 724.56  24.166  36.325
 725.06  24.166  36.325
 725.56  24.166  36.325
 726.06  24.166  36.325
 726.57  24.166  36.325
 727.07  24.140  36.325
 727.57  24.140  36.325
 728.07  24.166  36.325
 728.57  24.140  36.398
 729.07  24.140  36.398
 729.57  24.140  36.398
 730.07  24.140  36.398
 730.57  24.166  36.325
 731.07  24.166  36.325
 731.57  24.140  36.325
 732.07  24.140  36.398
 732.57  24.140  36.325
 733.07  24.140  36.398
 733.57  24.192  36.325
 734.07  24.140  36.105
 734.57  24.140  36.325
 735.07  24.192  36.251
 735.57  24.113  36.325
 736.07  24.113  36.325
 736.57  24.140  36.325
 737.07  24.113  36.325
 737.57  24.140  36.398
 738.07  24.166  36.325
 738.57  24.113  36.325
 739.07  24.140  36.325
 739.57  24.113  36.398
 740.07  24.140  36.325
 740.57  24.140  36.325
 741.07  24.140  36.325
 741.57  24.166  36.398
 742.07  24.192  36.325
 742.57  24.166  36.325
 743.07  24.113  36.325
 743.57  24.140  36.398
 744.07  24.166  36.325
 744.57  24.140  36.398
 745.07  24.140  36.398
 745.57  24.140  36.398
 746.07  24.113  36.398
 746.57  24.166  36.398
 747.07  24.166  36.398
 747.57  24.113  36.398
 748.07  24.113  36.398
 748.57  24.140  36.398
 749.07  24.113  36.398
 749.57  24.140  36.398
 750.07  24.113  36.325
 750.57  24.140  36.471
 751.07  24.113  36.471
 751.57  24.166  36.398
 752.07  24.192  36.398
 752.57  24.166  36.398
 753.07  24.166  36.398
 753.57  24.140  36.398
 754.07  24.166  36.398
 754.57  24.166  36.325
 755.07  24.140  36.398
 755.57  24.166  36.398
 756.07  24.140  36.398
 756.57  24.166  36.398
 757.07  24.140  36.398
 757.57  24.192  36.398
 758.07  24.140  36.471
 758.57  24.166  36.398
 759.07  24.140  36.471
 759.57  24.166  36.325
 760.07  24.192  36.398
 760.57  24.166  36.398
 761.07  24.192  36.398
 761.57  24.166  36.398
 762.07  24.166  36.471
 762.57  24.166  36.545
 763.07  24.140  36.471
 763.57  24.166  36.545
 764.07  24.166  36.398
 764.57  24.166  36.471
 765.07  24.166  36.545
 765.57  24.166  36.325
 766.07  24.140  36.398
 766.57  24.166  36.325
 767.07  24.140  36.398
 767.57  24.166  36.398
 768.07  24.192  36.398
 768.57  24.166  36.618
 769.07  24.192  36.471
 769.57  24.166  36.398
 770.07  24.166  36.471
 770.57  24.192  36.471
 771.07  24.113  36.471
 771.57  24.140  36.398
 772.07  24.140  36.471
 772.57  24.140  36.471
 773.07  24.166  36.471
 773.57  24.166  36.471
 774.07  24.166  36.398
 774.57  24.192  36.471
 775.07  24.166  36.398
 775.57  24.166  36.471
 776.07  24.140  36.471
 776.57  24.140  36.398
 777.07  24.140  36.471
 777.57  24.166  36.471
 778.07  24.166  36.325
 778.57  24.166  36.545
 779.07  24.166  36.545
 779.57  24.140  36.471
 780.07  24.166  36.545
 780.57  24.140  36.471
 781.07  24.166  36.398
 781.57  24.166  36.471
 782.07  24.166  36.471
 782.57  24.140  36.471
 783.07  24.113  36.471
 783.57  24.140  36.545
 784.07  24.166  36.471
 784.57  24.166  36.545
 785.07  24.166  36.471
 785.57  24.192  36.398
 786.07  24.140  36.545
 786.57  24.166  36.471
 787.07  24.140  36.471
 787.57  24.166  36.398
 788.07  24.192  36.618
 788.57  24.140  36.471
 789.07  24.166  36.471
 789.57  24.166  36.471
 790.07  24.166  36.545
 790.57  24.166  36.471
 791.07  24.166  36.471
 791.57  24.166  36.471
 792.07  24.166  36.545
 792.57  24.166  36.545
 793.07  24.140  36.618
 793.57  24.192  36.471
 794.07  24.166  36.545
 794.57  24.166  36.545
 795.07  24.140  36.471
 795.57  24.166  36.471
 796.07  24.218  36.545
 796.57  24.166  36.545
 797.07  24.192  36.545
 797.57  24.218  36.545
 798.07  24.140  36.545
 798.57  24.140  36.471
 799.07  24.166  36.545
 799.57  24.192  36.545
 800.07  24.166  36.545
 800.57  24.166  36.545
 801.07  24.166  36.545
 801.57  24.140  36.545
 802.07  24.166  36.471
 802.57  24.140  36.545
 803.07  24.166  36.471
 803.57  24.166  36.471
 804.07  24.166  36.545
 804.57  24.166  36.545
 805.07  24.140  36.545
 805.57  24.192  36.545
 806.07  24.192  36.545
 806.57  24.140  36.545
 807.07  24.166  36.545
 807.57  24.140  36.398
 808.07  24.166  36.545
 808.57  24.166  36.545
 809.07  24.166  36.545
 809.57  24.140  36.545
 810.07  24.166  36.545
 810.57  24.140  36.545
 811.07  24.166  36.471
 811.57  24.166  36.545
 812.07  24.192  36.618
 812.57  24.166  36.618
 813.07  24.140  36.545
 813.57  24.166  36.545
 814.07  24.166  36.545
 814.57  24.166  36.545
 815.07  24.166  36.545
 815.57  24.166  36.545
 816.07  24.166  36.545
 816.57  24.166  36.618
 817.07  24.166  36.545
 817.57  24.113  36.545
 818.07  24.166  36.398
 818.57  24.192  36.545
 819.07  24.140  36.471
 819.57  24.166  36.545
 820.07  24.192  36.618
 820.57  24.192  36.545
 821.07  24.166  36.545
 821.57  24.166  36.545
 822.07  24.166  36.471
 822.57  24.166  36.618
 823.07  24.166  36.618
 823.57  24.192  36.618
 824.07  24.166  36.691
 824.57  24.166  36.545
 825.07  24.166  36.471
 825.57  24.166  36.545
 826.07  24.166  36.618
 826.57  24.192  36.545
 827.07  24.140  36.545
 827.57  24.166  36.545
 828.07  24.192  36.618
 828.57  24.166  36.618
 829.07  24.166  36.545
 829.57  24.166  36.545
 830.07  24.166  36.618
 830.57  24.166  36.545
 831.07  24.166  36.691
 831.57  24.192  36.545
 832.07  24.166  36.545
 832.57  24.166  36.545
 833.07  24.166  36.545
 833.57  24.166  36.691
 834.07  24.166  36.618
 834.57  24.166  36.618
 835.07  24.166  36.618
 835.57  24.166  36.691
 836.07  24.140  36.618
 836.57  24.166  36.618
 837.07  24.166  36.691
 837.57  24.192  36.618
 838.07  24.192  36.618
 838.57  24.166  36.618
 839.07  24.166  36.618
 839.58  24.166  36.618
 840.08  24.166  36.618
 840.58  24.166  36.545
 841.08  24.166  36.545
 841.58  24.140  36.618
 842.08  24.192  36.691
 842.58  24.166  36.618
 843.08  24.140  36.618
 843.58  24.166  36.618
 844.08  24.166  36.618
 844.58  24.166  36.618
 845.08  24.192  36.618
 845.58  24.166  36.618
 846.08  24.166  36.618
 846.58  24.166  36.618
 847.08  24.192  36.618
 847.58  24.166  36.618
 848.08  24.192  36.545
 848.58  24.166  36.618
 849.08  24.166  36.618
 849.58  24.166  36.618
 850.08  24.166  36.618
 850.58  24.166  36.618
 851.08  24.192  36.618
 851.58  24.166  36.618
 852.08  24.166  36.691
 852.58  24.166  36.618
 853.08  24.192  36.618
 853.58  24.166  36.691
 854.08  24.166  36.618
 854.58  24.140  36.618
 855.08  24.166  36.691
 855.58  24.166  36.618
 856.08  24.192  36.618
 856.58  24.166  36.691
 857.08  24.166  36.618
 857.58  24.166  36.618
 858.08  24.166  36.618
 858.58  24.140  36.618
 859.08  24.192  36.618
 859.58  24.166  36.618
 860.08  24.140  36.618
 860.58  24.166  36.691
 861.08  24.192  36.691
 861.58  24.166  36.545
 862.08  24.192  36.545
 862.58  24.166  36.618
 863.08  24.166  36.618
 863.58  24.140  36.618
 864.08  24.192  36.618
 864.58  24.166  36.691
 865.08  24.166  36.618
 865.58  24.192  36.691
 866.08  24.192  36.691
 866.58  24.192  36.691
 867.08  24.192  36.618
 867.58  24.166  36.691
 868.08  24.166  36.618
 868.58  24.192  36.691
 869.08  24.192  36.618
 869.58  24.218  36.691
 870.08  24.166  36.691
 870.58  24.192  36.691
 871.08  24.166  36.691
 871.58  24.192  36.691
 872.08  24.192  36.691
 872.58  24.166  36.691
 873.08  24.166  36.765
 873.58  24.166  36.765
 874.08  24.192  36.691
 874.58  24.166  36.691
 875.08  24.218  36.691
 875.58  24.192  36.691
 876.08  24.192  36.691
 876.58  24.166  36.691
 877.08  24.166  36.691
 877.58  24.192  36.765
 878.08  24.166  36.691
 878.58  24.192  36.691
 879.08  24.192  36.691
 879.58  24.192  36.691
 880.08  24.218  36.618
 880.58  24.166  36.691
 881.08  24.192  36.691
 881.58  24.140  36.765
 882.08  24.166  36.838
 882.58  24.166  36.691
 883.08  24.192  36.691
 883.58  24.166  36.765
 884.08  24.166  36.691
 884.58  24.192  36.765
 885.08  24.166  36.691
 885.58  24.140  36.691
 886.08  24.218  36.691
 886.58  24.166  36.691
 887.08  24.166  36.765
 887.58  24.166  36.765
 888.08  24.166  36.691
 888.58  24.166  36.765
 889.08  24.166  36.691
 889.58  24.192  36.765
 890.08  24.192  36.691
 890.58  24.192  36.618
 891.08  24.166  36.765
 891.58  24.166  36.691
 892.08  24.166  36.765
 892.58  24.166  36.765
 893.08  24.192  36.691
 893.58  24.166  36.618
 894.08  24.166  36.691
 894.58  24.192  36.691
 895.08  24.140  36.691
 895.58  24.192  36.618
 896.08  24.192  36.765
 896.58  24.140  36.765
 897.08  24.166  36.691
 897.58  24.166  36.691
 898.08  24.192  36.765
 898.58  24.166  36.691
 899.08  24.166  36.765
 899.58  24.192  36.765
 900.08  24.113  36.618
 900.58  24.192  36.765
 901.08  24.166  36.765
 901.58  24.192  36.691
 902.08  24.218  36.765
 902.58  24.192  36.691
 903.08  24.192  36.765
 903.58  24.166  36.838
 904.08  24.140  36.691
 904.58  24.166  36.691
 905.08  24.140  36.765
 905.58  24.166  36.765
 906.08  24.192  36.838
 906.58  24.192  36.765
 907.08  24.192  36.765
 907.58  24.192  36.765
 908.08  24.192  36.765
 908.58  24.140  36.691
 909.08  24.166  36.765
 909.58  24.166  36.765
 910.08  24.166  36.765
 910.58  24.192  36.691
 911.08  24.166  36.765
 911.58  24.166  36.765
 912.08  24.192  36.765
 912.58  24.140  36.838
 913.08  24.192  36.765
 913.58  24.166  36.765
 914.08  24.166  36.691
 914.58  24.192  36.691
 915.08  24.166  36.765
 915.58  24.192  36.765
 916.08  24.192  36.765
 916.58  24.192  36.691
 917.08  24.192  36.838
 917.58  24.166  36.765
 918.08  24.140  36.765
 918.58  24.166  36.838
 919.08  24.192  36.765
 919.58  24.192  36.765
 920.08  24.166  36.765
 920.58  24.166  36.765
 921.08  24.166  36.765
 921.58  24.166  36.838
 922.08  24.218  36.765
 922.58  24.166  36.765
 923.08  24.166  36.838
 923.58  24.140  36.765
 924.08  24.192  36.765
 924.58  24.192  36.765
 925.08  24.192  36.765
 925.58  24.166  36.765
 926.08  24.192  36.838
 926.58  24.192  36.838
 927.08  24.166  36.838
 927.58  24.166  36.765
 928.08  24.192  36.765
 928.58  24.192  36.838
 929.08  24.166  36.765
 929.58  24.166  36.765
 930.08  24.192  36.838
 930.58  24.166  36.765
 931.08  24.192  36.765
 931.58  24.192  36.765
 932.08  24.192  36.911
 932.58  24.192  36.765
 933.08  24.192  36.838
 933.58  24.166  36.838
 934.08  24.166  36.838
 934.58  24.166  36.911
 935.08  24.218  36.765
 935.58  24.166  36.838
 936.08  24.166  36.765
 936.58  24.192  36.838
 937.08  24.192  36.838
 937.58  24.140  36.838
 938.08  24.192  36.765
 938.58  24.192  36.838
 939.08  24.244  36.765
 939.58  24.192  36.838
 940.08  24.218  36.765
 940.58  24.166  36.838
 941.08  24.166  36.838
 941.58  24.218  36.838
 942.08  24.218  36.838
 942.58  24.192  36.838
 943.08  24.192  36.838
 943.58  24.192  36.838
 944.08  24.192  36.838
 944.58  24.192  36.691
 945.08  24.192  36.765
 945.58  24.192  36.911
 946.08  24.166  36.911
 946.58  24.218  36.838
 947.08  24.192  36.838
 947.58  24.244  36.838
 948.08  24.192  36.838
 948.58  24.166  36.911
 949.08  24.166  36.838
 949.58  24.192  36.911
 950.08  24.218  36.911
 950.58  24.192  36.838
 951.08  24.218  36.838
 951.58  24.192  36.838
 952.08  24.218  36.765
 952.58  24.192  36.838
 953.09  24.166  36.985
 953.59  24.192  36.838
 954.09  24.218  36.911
 954.59  24.218  36.985
 955.09  24.218  36.911
 955.59  24.218  36.838
 956.09  24.218  36.911
 956.59  24.192  36.911
 957.09  24.218  36.911
 957.59  24.192  36.838
 958.09  24.192  36.838
 958.59  24.192  36.838
 959.09  24.192  37.058
 959.59  24.192  36.838
 960.09  24.192  36.911
 960.59  24.192  36.765
 961.09  24.166  36.838
 961.59  24.192  36.911
 962.09  24.192  36.838
 962.59  24.218  36.911
 963.09  24.166  36.838
 963.59  24.192  36.838
 964.09  24.192  36.838
 964.59  24.192  36.911
 965.09  24.218  36.911
 965.59  24.218  36.911
 966.09  24.218  36.911
 966.59  24.192  36.911
 967.09  24.192  36.838
 967.59  24.166  36.911
 968.09  24.192  36.911
 968.59  24.166  36.985
 969.09  24.192  36.911
 969.59  24.192  36.838
 970.09  24.192  36.838
 970.59  24.192  36.765
 971.09  24.192  36.911
 971.59  24.166  36.985
 972.09  24.218  36.985
 972.59  24.166  36.838
 973.09  24.166  36.911
 973.59  24.192  36.911
 974.09  24.192  36.838
 974.59  24.218  36.985
 975.09  24.192  36.911
 975.59  24.192  36.911
 976.09  24.192  36.911
 976.59  24.166  36.838
 977.09  24.192  36.911
 977.59  24.218  36.838
 978.09  24.192  36.911
 978.59  24.192  36.838
 979.09  24.192  36.911
 979.59  24.218  36.911
 980.09  24.166  36.838
 980.59  24.192  36.911
 981.09  24.192  36.838
 981.59  24.192  36.911
 982.09  24.192  36.985
 982.59  24.192  36.911
 983.09  24.244  36.838
 983.59  24.218  36.911
 984.09  24.192  36.838
 984.59  24.192  36.911
 985.09  24.192  36.911
 985.59  24.192  36.911
 986.09  24.166  36.911
 986.59  24.192  36.985
 987.09  24.270  36.911
 987.59  24.192  36.911
 988.09  24.192  36.911
 988.59  24.218  36.911
 989.09  24.192  36.985
 989.59  24.192  36.911
 990.09  24.192  36.911
 990.59  24.192  36.911
 991.09  24.166  36.985
 991.59  24.192  36.911
 992.09  24.192  36.911
 992.59  24.218  36.911
 993.09  24.192  36.985
 993.59  24.166  36.985
 994.09  24.192  36.985
 994.59  24.192  36.985
 995.09  24.218  36.911
 995.59  24.166  36.911
 996.09  24.192  36.985
 996.59  24.192  36.985
 997.09  24.192  36.911
 997.59  24.218  36.985
 998.09  24.192  36.911
 998.59  24.192  36.985
 999.09  24.218  36.911
 999.59  24.218  36.911
1000.09  24.192  36.985
1000.59  24.192  36.985
1001.09  24.192  36.911
1001.59  24.218  36.911
1002.09  24.192  36.911
1002.59  24.166  36.985
1003.09  24.218  36.985
1003.59  24.218  36.985
1004.09  24.192  36.985
1004.59  24.218  36.985
1005.09  24.244  36.985
1005.59  24.218  36.911
1006.09  24.192  36.985
1006.59  24.166  36.985
1007.09  24.192  36.985
1007.59  24.218  36.911
1008.09  24.192  36.985
1008.59  24.192  36.985
1009.09  24.166  36.985
1009.59  24.218  37.058
1010.09  24.192  36.985
1010.59  24.218  36.911
1011.09  24.192  36.985
1011.59  24.218  36.985
1012.09  24.192  36.985
1012.59  24.192  36.985
1013.09  24.192  36.985
1013.59  24.192  36.985
1014.09  24.192  36.985
1014.59  24.192  36.985
1015.09  24.192  36.985
1015.59  24.218  36.985
1016.09  24.192  37.058
1016.59  24.166  37.058
1017.09  24.192  37.058
1017.59  24.166  36.985
1018.09  24.140  36.985
1018.59  24.218  36.985
1019.09  24.192  37.058
1019.59  24.192  36.985
1020.09  24.192  36.985
1020.59  24.192  36.985
1021.09  24.192  36.985
1021.59  24.218  37.058
1022.09  24.218  37.058
1022.59  24.192  36.985
1023.09  24.192  36.985
1023.59  24.192  37.058
1024.09  24.166  37.058
1024.59  24.192  36.985
1025.09  24.192  36.985
1025.59  24.218  37.058
1026.09  24.192  37.058
1026.59  24.192  36.985
1027.09  24.192  36.985
1027.59  24.192  36.985
1028.09  24.192  36.985
1028.59  24.192  37.058
1029.09  24.192  36.985
1029.59  24.218  37.058
1030.09  24.192  37.058
1030.59  24.192  36.985
1031.09  24.218  37.058
1031.59  24.192  37.058
1032.09  24.192  37.058
1032.59  24.166  37.058
1033.09  24.218  37.058
1033.59  24.192  37.058
1034.09  24.192  37.058
1034.59  24.218  37.058
1035.09  24.218  37.058
1035.59  24.192  37.058
1036.09  24.218  37.058
1036.59  24.218  37.058
1037.09  24.192  36.985
1037.59  24.192  37.058
1038.09  24.218  37.131
1038.59  24.192  37.058
1039.09  24.192  37.058
1039.59  24.218  37.058
1040.09  24.192  37.058
1040.59  24.192  37.058
1041.09  24.192  37.058
1041.59  24.192  37.058
1042.09  24.218  37.131
1042.59  24.192  37.058
1043.09  24.192  37.058
1043.59  24.218  36.985
1044.09  24.192  37.131
1044.59  24.192  37.058
1045.09  24.192  36.911
1045.59  24.192  36.985
1046.09  24.192  37.058
1046.59  24.192  37.058
1047.09  24.192  37.058
1047.59  24.192  37.058
1048.09  24.166  37.058
1048.59  24.192  37.131
1049.09  24.192  37.205
1049.59  24.218  36.985
1050.09  24.192  37.058
1050.59  24.192  37.058
1051.09  24.218  37.131
1051.59  24.192  37.058
1052.09  24.218  37.131
1052.59  24.192  37.058
1053.09  24.192  37.058
1053.59  24.192  37.058
1054.09  24.192  37.058
1054.59  24.166  37.058
1055.09  24.218  37.058
1055.59  24.218  37.058
1056.09  24.192  37.131
1056.59  24.218  37.058
1057.09  24.192  37.058
1057.59  24.192  37.058
1058.09  24.218  37.131
1058.59  24.166  37.131
1059.09  24.192  37.058
1059.59  24.192  37.058
1060.09  24.192  37.131
1060.59  24.192  37.058
1061.09  24.218  37.131
1061.59  24.166  37.131
1062.09  24.218  37.131
1062.59  24.192  37.131
1063.09  24.192  37.131
1063.59  24.218  37.058
1064.09  24.192  37.131
1064.59  24.218  37.058
1065.09  24.218  37.058
1065.59  24.192  37.205
1066.10  24.218  37.131
1066.60  24.192  37.131
1067.10  24.218  37.131
1067.60  24.218  37.058
1068.10  24.218  37.058
1068.60  24.192  37.058
1069.10  24.192  37.205
1069.60  24.218  37.131
1070.10  24.166  37.131
1070.60  24.192  37.131
1071.10  24.244  37.131
1071.60  24.218  37.131
1072.10  24.218  37.205
1072.60  24.192  37.131
1073.10  24.218  37.131
1073.60  24.218  37.131
1074.10  24.218  37.058
1074.60  24.218  37.205
1075.10  24.244  37.131
1075.60  24.244  37.131
1076.10  24.192  37.131
1076.60  24.218  37.131
1077.10  24.218  37.131
1077.60  24.218  37.131
1078.10  24.218  37.131
1078.60  24.218  37.131
1079.10  24.218  37.131
1079.60  24.218  37.205
1080.10  24.218  37.131
1080.60  24.218  37.131
1081.10  24.218  37.131
1081.60  24.192  37.131
1082.10  24.244  37.131
1082.60  24.218  37.131
1083.10  24.218  37.131
1083.60  24.218  37.131
1084.10  24.218  37.131
1084.60  24.218  37.131
1085.10  24.218  37.131
1085.60  24.218  37.131
1086.10  24.218  37.131
1086.60  24.192  37.131
1087.10  24.218  37.205
1087.60  24.218  37.131
1088.10  24.192  37.131
1088.60  24.218  37.131
1089.10  24.192  37.131
1089.60  24.244  37.131
1090.10  24.192  37.131
1090.60  24.192  37.205
1091.10  24.218  37.131
1091.60  24.218  37.131
1092.10  24.218  37.131
1092.60  24.192  37.131
1093.10  24.218  37.205
1093.60  24.192  37.131
1094.10  24.218  37.205
1094.60  24.192  37.205
1095.10  24.218  37.131
1095.60  24.218  37.131
1096.10  24.218  37.131
1096.60  24.192  37.205
1097.10  24.244  37.205
1097.60  24.218  37.131
1098.10  24.218  37.205
1098.60  24.218  37.205
1099.10  24.244  37.205
1099.60  24.218  37.205
1100.10  24.218  37.131
1100.60  24.192  37.131
1101.10  24.218  37.205
1101.60  24.218  37.058
1102.10  24.218  37.205
1102.60  24.218  37.278
1103.10  24.244  37.131
1103.60  24.218  37.205
1104.10  24.218  37.131
1104.60  24.218  37.205
1105.10  24.218  37.205
1105.60  24.192  37.205
1106.10  24.218  37.205
1106.60  24.192  37.131
1107.10  24.192  37.131
1107.60  24.270  37.131
1108.10  24.244  37.205
1108.60  24.218  37.205
1109.10  24.192  37.131
1109.60  24.192  37.131
1110.10  24.192  37.131
1110.60  24.244  37.205
1111.10  24.192  37.131
1111.60  24.192  37.131
1112.10  24.218  37.205
1112.60  24.244  37.131
1113.10  24.244  37.205
1113.60  24.218  37.205
1114.10  24.192  37.205
1114.60  24.218  37.205
1115.10  24.192  37.205
1115.60  24.244  37.205
1116.10  24.244  37.205
1116.60  24.218  37.278
1117.10  24.218  37.131
1117.60  24.244  37.131
1118.10  24.218  37.205
1118.60  24.270  37.278
1119.10  24.218  37.278
1119.60  24.244  37.205
1120.10  24.244  37.131
1120.60  24.244  37.205
1121.10  24.218  37.205
1121.60  24.218  37.205
1122.10  24.244  37.205
1122.60  24.192  37.278
1123.10  24.218  37.205
1123.60  24.244  37.205
1124.10  24.218  37.278
1124.60  24.244  37.205
1125.10  24.218  37.205
1125.60  24.218  37.205
1126.10  24.244  37.278
1126.60  24.218  37.278
1127.10  24.244  37.205
1127.60  24.218  37.205
1128.10  24.218  37.205
1128.60  24.218  37.205
1129.10  24.192  37.205
1129.60  24.244  37.205
1130.10  24.218  37.205
1130.60  24.218  37.205
1131.10  24.218  37.278
1131.60  24.218  37.131
1132.10  24.218  37.205
1132.60  24.218  37.205
1133.10  24.244  37.205
1133.60  24.218  37.205
1134.10  24.270  37.278
1134.60  24.218  37.205
1135.10  24.244  37.205
1135.60  24.244  37.205
1136.10  24.218  37.205
1136.60  24.218  37.205
1137.10  24.244  37.205
1137.60  24.244  37.131
1138.10  24.218  37.205
1138.60  24.218  37.205
1139.10  24.192  37.278
1139.60  24.244  37.205
1140.10  24.218  37.205
1140.60  24.192  37.205
1141.10  24.270  37.278
1141.60  24.192  37.278
1142.10  24.218  37.205
1142.60  24.218  37.205
1143.10  24.244  37.278
1143.60  24.244  37.205
1144.10  24.244  37.278
1144.60  24.218  37.205
1145.10  24.218  37.278
1145.60  24.218  37.205
1146.10  24.244  37.278
1146.60  24.244  37.205
1147.10  24.192  37.351
1147.60  24.218  37.278
1148.10  24.244  37.351
1148.60  24.244  37.205
1149.10  24.218  37.205
1149.60  24.244  37.351
1150.10  24.218  37.278
1150.60  24.244  37.205
1151.10  24.218  37.278
1151.60  24.244  37.205
1152.10  24.218  37.278
1152.60  24.218  37.278
1153.10  24.244  37.278
1153.60  24.244  37.278
1154.10  24.244  37.278
1154.60  24.218  37.278
1155.10  24.218  37.278
1155.60  24.192  37.278
1156.10  24.218  37.205
1156.60  24.218  37.278
1157.10  24.218  37.205
1157.60  24.218  37.205
1158.10  24.218  37.278
1158.60  24.218  37.278
1159.10  24.218  37.351
1159.60  24.218  37.205
1160.10  24.218  37.278
1160.60  24.244  37.278
1161.10  24.218  37.351
1161.60  24.192  37.278
1162.10  24.218  37.278
1162.60  24.218  37.278
1163.10  24.244  37.351
1163.60  24.244  37.278
1164.10  24.244  37.278
1164.60  24.244  37.278
1165.10  24.244  37.278
1165.60  24.244  37.278
1166.10  24.244  37.278
1166.60  24.244  37.278
1167.10  24.218  37.278
1167.60  24.244  37.278
1168.10  24.270  37.278
1168.60  24.192  37.278
1169.10  24.218  37.278
1169.60  24.218  37.351
1170.10  24.218  37.278
1170.60  24.218  37.278
1171.10  24.218  37.278
1171.60  24.192  37.278
1172.10  24.218  37.278
1172.60  24.218  37.278
1173.10  24.192  37.278
1173.60  24.192  37.278
1174.10  24.244  37.278
1174.60  24.218  37.278
1175.10  24.218  37.278
1175.60  24.270  37.278
1176.10  24.192  37.278
1176.60  24.244  37.278
1177.10  24.244  37.351
1177.60  24.244  37.278
1178.10  24.192  37.278
1178.60  24.244  37.278
1179.11  24.244  37.278
1179.61  24.244  37.278
1180.11  24.244  37.278
1180.61  24.218  37.351
1181.11  24.218  37.278
1181.61  24.244  37.278
1182.11  24.244  37.278
1182.61  24.218  37.278
1183.11  24.218  37.278
1183.61  24.244  37.278
1184.11  24.244  37.278
1184.61  24.244  37.278
1185.11  24.218  37.351
1185.61  24.218  37.351
1186.11  24.244  37.278
1186.61  24.244  37.278
1187.11  24.244  37.278
1187.61  24.192  37.205
1188.11  24.218  37.278
1188.61  24.270  37.424
1189.11  24.218  37.278
1189.61  24.244  37.278
1190.11  24.244  37.351
1190.61  24.244  37.351
1191.11  24.244  37.351
1191.61  24.244  37.351
1192.11  24.244  37.278
1192.61  24.244  37.278
1193.11  24.218  37.351
1193.61  24.244  37.278
1194.11  24.244  37.131
1194.61  24.244  37.278
1195.11  24.218  37.278
1195.61  24.218  37.278
1196.11  24.218  37.278
1196.61  24.244  37.278
1197.11  24.244  37.278
1197.61  24.244  37.351
1198.11  24.244  37.205
1198.61  24.244  37.351
1199.11  24.218  37.278
1199.61  24.192  37.351
1200.11  24.270  37.278
1200.61  24.244  37.278
1201.11  24.218  37.278
1201.61  24.218  37.351
1202.11  24.218  37.278
1202.61  24.244  37.278
1203.11  24.244  37.278
1203.61  24.218  37.278
1204.11  24.244  37.278
1204.61  24.244  37.351
1205.11  24.244  37.351
1205.61  24.244  37.351
1206.11  24.244  37.351
1206.61  24.244  37.424
1207.11  24.218  37.205
1207.61  24.244  37.351
1208.11  24.244  37.351
1208.61  24.218  37.351
1209.11  24.244  37.351
1209.61  24.218  37.351
1210.11  24.244  37.351
1210.61  24.218  37.351
1211.11  24.218  37.351
1211.61  24.244  37.351
1212.11  24.244  37.351
1212.61  24.244  37.351
1213.11  24.244  37.424
1213.61  24.270  37.278
1214.11  24.244  37.351
1214.61  24.244  37.351
1215.11  24.244  37.351
1215.61  24.244  37.424
1216.11  24.244  37.424
1216.61  24.244  37.351
1217.11  24.244  37.205
1217.61  24.244  37.351
1218.11  24.244  37.351
1218.61  24.244  37.351
1219.11  24.244  37.351
1219.61  24.218  37.351
1220.11  24.244  37.278
1220.61  24.244  37.351
1221.11  24.218  37.351
1221.61  24.244  37.351
1222.11  24.270  37.351
1222.61  24.244  37.351
1223.11  24.244  37.424
1223.61  24.244  37.351
1224.11  24.244  37.278
1224.61  24.244  37.351
1225.11  24.218  37.424
1225.61  24.270  37.278
1226.11  24.218  37.351
1226.61  24.244  37.351
1227.11  24.244  37.351
1227.61  24.218  37.351
1228.11  24.244  37.351
1228.61  24.270  37.351
1229.11  24.270  37.351
1229.61  24.244  37.424
1230.11  24.218  37.351
1230.61  24.270  37.424
1231.11  24.270  37.351
1231.61  24.244  37.351
1232.11  24.244  37.351
1232.61  24.270  37.351
1233.11  24.244  37.424
1233.61  24.244  37.351
1234.11  24.270  37.424
1234.61  24.218  37.424
1235.11  24.244  37.278
1235.61  24.296  37.424
1236.11  24.244  37.424
1236.61  24.244  37.351
1237.11  24.244  37.351
1237.61  24.244  37.424
1238.11  24.244  37.351
1238.61  24.244  37.351
1239.11  24.244  37.351
1239.61  24.244  37.424
1240.11  24.244  37.424
1240.61  24.244  37.351
1241.11  24.192  37.424
1241.61  24.218  37.351
1242.11  24.270  37.498
1242.61  24.244  37.424
1243.11  24.270  37.424
1243.61  24.244  37.424
1244.11  24.270  37.424
1244.61  24.244  37.351
1245.11  24.244  37.351
1245.61  24.244  37.424
1246.11  24.244  37.424
1246.61  24.244  37.424
1247.11  24.244  37.351
1247.61  24.244  37.351
1248.11  24.244  37.424
1248.61  24.270  37.424
1249.11  24.244  37.351
1249.61  24.244  37.424
1250.11  24.270  37.351
1250.61  24.244  37.424
1251.11  24.192  37.351
1251.61  24.270  37.351
1252.11  24.296  37.424
1252.61  24.192  37.424
1253.11  24.218  37.424
1253.61  24.270  37.424
1254.11  24.244  37.351
1254.61  24.270  37.424
1255.11  24.244  37.424
1255.61  24.218  37.424
1256.11  24.244  37.424
1256.61  24.192  37.424
1257.11  24.244  37.351
1257.61  24.244  37.351
1258.11  24.270  37.498
1258.61  24.218  37.424
1259.11  24.218  37.351
1259.61  24.270  37.424
1260.11  24.244  37.424
1260.61  24.270  37.424
1261.11  24.244  37.424
1261.61  24.270  37.351
1262.11  24.270  37.424
1262.61  24.244  37.351
1263.11  24.244  37.351
1263.61  24.218  37.424
1264.11  24.244  37.351
1264.61  24.270  37.424
1265.11  24.192  37.424
1265.61  24.218  37.424
1266.11  24.244  37.498
1266.61  24.244  37.424
1267.11  24.244  37.424
1267.61  24.244  37.351
1268.11  24.244  37.424
1268.61  24.244  37.424
1269.11  24.244  37.424
1269.61  24.244  37.424
1270.11  24.244  37.424
1270.61  24.244  37.424
1271.11  24.218  37.424
1271.61  24.270  37.498
1272.11  24.244  37.424
1272.61  24.244  37.424
1273.11  24.270  37.424
1273.61  24.244  37.424
1274.11  24.244  37.498
1274.61  24.270  37.424
1275.11  24.244  37.424
1275.61  24.244  37.498
1276.11  24.244  37.424
1276.61  24.192  37.498
1277.11  24.244  37.498
1277.61  24.244  37.278
1278.11  24.270  37.424
1278.61  24.270  37.571
1279.11  24.244  37.571
1279.61  24.244  37.424
1280.11  24.244  37.424
1280.61  24.244  37.424
1281.11  24.244  37.424
1281.61  24.244  37.424
1282.11  24.244  37.424
1282.61  24.244  37.424
1283.11  24.270  37.424
1283.61  24.270  37.571
1284.11  24.218  37.424
1284.61  24.244  37.498
1285.11  24.296  37.424
1285.61  24.270  37.424
1286.11  24.244  37.498
1286.61  24.244  37.498
1287.11  24.244  37.424
1287.61  24.270  37.424
1288.11  24.244  37.351
1288.61  24.244  37.424
1289.11  24.270  37.424
1289.61  24.244  37.351
1290.11  24.244  37.571
1290.61  24.244  37.424
1291.11  24.244  37.498
1291.61  24.244  37.424
1292.12  24.270  37.498
1292.62  24.244  37.424
1293.12  24.296  37.424
1293.62  24.270  37.424
1294.12  24.244  37.424
1294.62  24.270  37.424
1295.12  24.244  37.424
1295.62  24.270  37.424
1296.12  24.244  37.424
1296.62  24.244  37.424
1297.12  24.244  37.351
1297.62  24.244  37.424
1298.12  24.270  37.424
1298.62  24.218  37.424
1299.12  24.270  37.424
1299.62  24.244  37.498
1300.12  24.270  37.351
1300.62  24.244  37.424
1301.12  24.322  37.571
1301.62  24.270  37.424
1302.12  24.270  37.498
1302.62  24.244  37.498
1303.12  24.270  37.424
1303.62  24.244  37.424
1304.12  24.270  37.498
1304.62  24.270  37.498
1305.12  24.270  37.424
1305.62  24.270  37.498
1306.12  24.244  37.498
1306.62  24.296  37.498
1307.12  24.270  37.424
1307.62  24.270  37.498
1308.12  24.244  37.498
1308.62  24.244  37.498
1309.12  24.296  37.498
1309.62  24.270  37.424
1310.12  24.270  37.498
1310.62  24.270  37.498
1311.12  24.244  37.424
1311.62  24.270  37.498
1312.12  24.270  37.424
1312.62  24.270  37.498
1313.12  24.296  37.571
1313.62  24.296  37.424
1314.12  24.244  37.351
1314.62  24.244  37.644
1315.12  24.270  37.424
1315.62  24.270  37.571
1316.12  24.270  37.571
1316.62  24.244  37.498
1317.12  24.244  37.498
1317.62  24.270  37.498
1318.12  24.244  37.498
1318.62  24.270  37.498
1319.12  24.270  37.424
1319.62  24.244  37.498
1320.12  24.270  37.498
1320.62  24.244  37.498
1321.12  24.270  37.498
1321.62  24.270  37.571
1322.12  24.244  37.424
1322.62  24.244  37.571
1323.12  24.296  37.498
1323.62  24.270  37.498
1324.12  24.244  37.498
1324.62  24.270  37.571
1325.12  24.270  37.498
1325.62  24.270  37.498
1326.12  24.270  37.498
1326.62  24.270  37.424
1327.12  24.322  37.498
1327.62  24.270  37.644
1328.12  24.270  37.498
1328.62  24.270  37.571
1329.12  24.244  37.498
1329.62  24.244  37.498
1330.12  24.270  37.571
1330.62  24.270  37.424
1331.12  24.270  37.498
1331.62  24.270  37.498
1332.12  24.270  37.498
1332.62  24.270  37.498
1333.12  24.270  37.498
1333.62  24.270  37.498
1334.12  24.270  37.498
1334.62  24.270  37.424
1335.12  24.270  37.498
1335.62  24.244  37.424
1336.12  24.270  37.498
1336.62  24.296  37.498
1337.12  24.244  37.498
1337.62  24.270  37.424
1338.12  24.270  37.498
1338.62  24.244  37.498
1339.12  24.270  37.571
1339.62  24.270  37.498
1340.12  24.244  37.498
1340.62  24.244  37.498
1341.12  24.270  37.498
1341.62  24.244  37.424
1342.12  24.270  37.498
1342.62  24.244  37.498
1343.12  24.244  37.498
1343.62  24.270  37.498
1344.12  24.270  37.498
1344.62  24.270  37.498
1345.12  24.270  37.571
1345.62  24.244  37.571
1346.12  24.244  37.498
1346.62  24.270  37.571
1347.12  24.244  37.498
1347.62  24.270  37.424
1348.12  24.244  37.571
1348.62  24.270  37.424
1349.12  24.270  37.498
1349.62  24.244  37.571
1350.12  24.244  37.498
1350.62  24.270  37.571
1351.12  24.270  37.498
1351.62  24.270  37.571
1352.12  24.270  37.571
1352.62  24.270  37.571
1353.12  24.244  37.498
1353.62  24.270  37.498
1354.12  24.270  37.571
1354.62  24.270  37.498
1355.12  24.244  37.424
1355.62  24.244  37.571
1356.12  24.270  37.571
1356.62  24.244  37.571
1357.12  24.270  37.498
1357.62  24.270  37.498
1358.12  24.244  37.571
1358.62  24.218  37.498
1359.12  24.270  37.571
1359.62  24.270  37.571
1360.12  24.270  37.498
1360.62  24.270  37.571
1361.12  24.270  37.498
1361.62  24.270  37.498
1362.12  24.270  37.644
1362.62  24.270  37.571
1363.12  24.270  37.498
1363.62  24.244  37.571
1364.12  24.244  37.498
1364.62  24.270  37.571
1365.12  24.270  37.571
1365.62  24.270  37.571
1366.12  24.270  37.571
1366.62  24.322  37.571
1367.12  24.218  37.644
1367.62  24.244  37.498
1368.12  24.244  37.571
1368.62  24.270  37.498
1369.12  24.270  37.571
1369.62  24.244  37.571
1370.12  24.270  37.571
1370.62  24.270  37.571
1371.12  24.270  37.571
1371.62  24.270  37.571
1372.12  24.270  37.571
1372.62  24.244  37.498
1373.12  24.244  37.571
1373.62  24.270  37.571
1374.12  24.244  37.571
1374.62  24.270  37.571
1375.12  24.244  37.571
1375.62  24.244  37.644
1376.12  24.270  37.644
1376.62  24.244  37.644
1377.12  24.244  37.571
1377.62  24.270  37.644
1378.12  24.244  37.644
1378.62  24.270  37.644
1379.12  24.270  37.498
1379.62  24.270  37.644
1380.12  24.270  37.498
1380.62  24.270  37.644
1381.12  24.270  37.571
1381.62  24.270  37.571
1382.12  24.244  37.644
1382.62  24.270  37.644
1383.12  24.270  37.571
1383.62  24.270  37.644
1384.12  24.270  37.571
1384.62  24.270  37.571
1385.12  24.270  37.571
1385.62  24.270  37.498
1386.12  24.270  37.571
1386.62  24.296  37.644
1387.12  24.244  37.644
1387.62  24.270  37.571
1388.12  24.270  37.644
1388.62  24.270  37.571
1389.12  24.270  37.718
1389.62  24.296  37.571
1390.12  24.270  37.571
1390.62  24.270  37.644
1391.12  24.270  37.571
1391.62  24.270  37.571
1392.12  24.244  37.644
1392.62  24.296  37.571
1393.12  24.244  37.571
1393.62  24.270  37.571
1394.12  24.296  37.571
1394.62  24.270  37.571
1395.12  24.244  37.498
1395.62  24.244  37.571
1396.12  24.270  37.571
1396.62  24.270  37.644
1397.12  24.270  37.571
1397.62  24.270  37.571
1398.12  24.270  37.571
1398.62  24.296  37.644
1399.12  24.296  37.571
1399.62  24.270  37.498
1400.12  24.270  37.644
1400.62  24.270  37.644
1401.12  24.270  37.644
1401.62  24.244  37.571
1402.12  24.270  37.571
1402.62  24.270  37.571
1403.12  24.270  37.718
1403.62  24.296  37.571
1404.12  24.270  37.644
1404.62  24.270  37.571
1405.12  24.270  37.571
1405.62  24.270  37.571
1406.12  24.270  37.571
1406.62  24.244  37.571
1407.12  24.270  37.644
1407.62  24.270  37.644
1408.12  24.270  37.571
1408.62  24.322  37.571
1409.12  24.270  37.644
1409.62  24.270  37.571
1410.12  24.270  37.571
1410.62  24.218  37.644
1411.12  24.270  37.571
1411.62  24.270  37.498
1412.12  24.270  37.571
1412.62  24.270  37.571
1413.12  24.296  37.644
1413.62  24.270  37.571
1414.12  24.270  37.571
1414.62  24.270  37.644
1415.12  24.270  37.644
1415.62  24.270  37.644
1416.13  24.270  37.644
1416.63  24.270  37.644
1417.13  24.270  37.571
1417.63  24.270  37.644
1418.13  24.270  37.644
1418.63  24.270  37.571
1419.13  24.270  37.644
1419.63  24.270  37.644
1420.13  24.270  37.644
1420.63  24.296  37.644
1421.13  24.270  37.718
1421.63  24.270  37.644
1422.13  24.270  37.571
1422.63  24.270  37.644
1423.13  24.296  37.571
1423.63  24.270  37.571
1424.13  24.270  37.644
1424.63  24.270  37.644
1425.13  24.270  37.644
1425.63  24.270  37.571
1426.13  24.270  37.644
1426.63  24.270  37.571
1427.13  24.270  37.718
1427.63  24.270  37.718
1428.13  24.270  37.644
1428.63  24.270  37.644
1429.13  24.270  37.644
1429.63  24.270  37.644
1430.13  24.270  37.644
1430.63  24.296  37.644
1431.13  24.270  37.718
1431.63  24.270  37.718
1432.13  24.296  37.644
1432.63  24.296  37.644
1433.13  24.270  37.644
1433.63  24.270  37.571
1434.13  24.270  37.791
1434.63  24.270  37.644
1435.13  24.270  37.644
1435.63  24.270  37.644
1436.13  24.244  37.644
1436.63  24.270  37.571
1437.13  24.270  37.718
1437.63  24.244  37.644
1438.13  24.296  37.644
1438.63  24.244  37.718
1439.13  24.244  37.644
1439.63  24.270  37.718
1440.13  24.270  37.644
1440.63  24.270  37.644
1441.13  24.270  37.644
1441.63  24.296  37.718
1442.13  24.296  37.644
1442.63  24.270  37.644
1443.13  24.296  37.644
1443.63  24.296  37.644
1444.13  24.270  37.644
1444.63  24.296  37.718
1445.13  24.296  37.718
1445.63  24.244  37.644
1446.13  24.270  37.644
1446.63  24.296  37.644
1447.13  24.270  37.571
1447.63  24.270  37.718
1448.13  24.296  37.644
1448.63  24.270  37.644
1449.13  24.270  37.571
1449.63  24.270  37.644
1450.13  24.270  37.571
1450.63  24.218  37.644
1451.13  24.270  37.644
1451.63  24.296  37.644
1452.13  24.270  37.791
1452.63  24.296  37.718
1453.13  24.270  37.718
1453.63  24.270  37.644
1454.13  24.322  37.644
1454.63  24.296  37.644
1455.13  24.270  37.644
1455.63  24.244  37.644
1456.13  24.296  37.644
1456.63  24.270  37.718
1457.13  24.270  37.644
1457.63  24.270  37.644
1458.13  24.270  37.571
1458.63  24.270  37.718
1459.13  24.296  37.718
1459.63  24.296  37.644
1460.13  24.322  37.644
1460.63  24.270  37.644
1461.13  24.270  37.644
1461.63  24.270  37.644
1462.13  24.270  37.718
1462.63  24.296  37.644
1463.13  24.270  37.644
1463.63  24.270  37.644
1464.13  24.296  37.718
1464.63  24.270  37.644
1465.13  24.270  37.644
1465.63  24.244  37.644
1466.13  24.244  37.644
1466.63  24.270  37.644
1467.13  24.270  37.644
1467.63  24.244  37.571
1468.13  24.322  37.644
1468.63  24.270  37.644
1469.13  24.270  37.644
1469.63  24.270  37.644
1470.13  24.244  37.644
1470.63  24.244  37.644
1471.13  24.270  37.644
1471.63  24.296  37.644
1472.13  24.296  37.644
1472.63  24.270  37.644
1473.13  24.244  37.644
1473.63  24.270  37.644
1474.13  24.296  37.644
1474.63  24.270  37.644
1475.13  24.270  37.718
1475.63  24.322  37.644
1476.13  24.296  37.644
1476.63  24.296  37.644
1477.13  24.270  37.644
1477.63  24.322  37.644
1478.13  24.296  37.718
1478.63  24.296  37.644
1479.13  24.270  37.644
1479.63  24.244  37.644
1480.13  24.270  37.644
1480.63  24.296  37.718
1481.13  24.296  37.644
1481.63  24.270  37.718
1482.13  24.244  37.718
1482.63  24.270  37.644
1483.13  24.296  37.644
1483.63  24.270  37.571
1484.13  24.296  37.644
1484.63  24.270  37.644
1485.13  24.296  37.718
1485.63  24.296  37.791
1486.13  24.270  37.644
1486.63  24.270  37.718
1487.13  24.270  37.718
1487.63  24.296  37.644
1488.13  24.270  37.718
1488.63  24.270  37.644
1489.13  24.296  37.644
1489.63  24.270  37.718
1490.13  24.296  37.718
1490.63  24.296  37.718
1491.13  24.270  37.644
1491.63  24.244  37.718
1492.13  24.270  37.718
1492.63  24.296  37.644
1493.13  24.270  37.718
1493.63  24.270  37.718
1494.13  24.296  37.718
1494.63  24.270  37.644
1495.13  24.270  37.718
1495.63  24.296  37.718
1496.13  24.270  37.718
1496.63  24.270  37.718
1497.13  24.296  37.644
1497.63  24.270  37.644
1498.13  24.270  37.718
1498.63  24.270  37.718
1499.13  24.296  37.718
1499.63  24.270  37.718
1500.13  24.296  37.644
1500.63  24.296  37.718
1501.13  24.296  37.718
1501.63  24.296  37.718
1502.13  24.296  37.644
1502.63  24.244  37.718
1503.13  24.296  37.718
1503.63  24.296  37.718
1504.13  24.270  37.718
1504.63  24.296  37.718
1505.13  24.296  37.718
1505.63  24.296  37.718
1506.13  24.270  37.718
1506.63  24.296  37.718
1507.13  24.270  37.718
1507.63  24.296  37.718
1508.13  24.296  37.718
1508.63  24.270  37.718
1509.13  24.270  37.644
1509.63  24.270  37.718
1510.13  24.296  37.791
1510.63  24.296  37.718
1511.13  24.296  37.718
1511.63  24.270  37.791
1512.13  24.296  37.718
1512.63  24.244  37.791
1513.13  24.322  37.571
1513.63  24.296  37.718
1514.13  24.270  37.791
1514.63  24.296  37.791
1515.13  24.270  37.718
1515.63  24.270  37.718
1516.13  24.322  37.718
1516.63  24.270  37.718
1517.13  24.296  37.718
1517.63  24.296  37.718
1518.13  24.296  37.718
1518.63  24.270  37.644
1519.13  24.296  37.718
1519.63  24.270  37.718
1520.13  24.296  37.718
1520.63  24.296  37.718
1521.13  24.296  37.718
1521.63  24.296  37.791
1522.13  24.244  37.718
1522.63  24.270  37.718
1523.13  24.296  37.718
1523.63  24.296  37.718
1524.13  24.270  37.718
1524.63  24.322  37.791
1525.13  24.296  37.718
1525.63  24.296  37.718
1526.13  24.296  37.718
1526.63  24.296  37.718
1527.13  24.270  37.644
1527.63  24.296  37.718
1528.13  24.296  37.718
1528.63  24.270  37.718
1529.13  24.244  37.718
1529.64  24.322  37.644
1530.14  24.270  37.718
1530.64  24.270  37.718
1531.14  24.270  37.718
1531.64  24.270  37.718
1532.14  24.270  37.718
1532.64  24.270  37.791
1533.14  24.296  37.718
1533.64  24.296  37.718
1534.14  24.296  37.718
1534.64  24.270  37.644
1535.14  24.296  37.718
1535.64  24.296  37.718
1536.14  24.296  37.718
1536.64  24.296  37.718
1537.14  24.270  37.791
1537.64  24.296  37.791
1538.14  24.296  37.718
1538.64  24.270  37.718
1539.14  24.296  37.718
1539.64  24.296  37.791
1540.14  24.322  37.718
1540.64  24.296  37.791
1541.14  24.296  37.791
1541.64  24.296  37.718
1542.14  24.296  37.791
1542.64  24.296  37.718
1543.14  24.270  37.791
1543.64  24.270  37.718
1544.14  24.296  37.718
1544.64  24.296  37.718
1545.14  24.296  37.791
1545.64  24.296  37.718
1546.14  24.296  37.791
1546.64  24.296  37.791
1547.14  24.296  37.791
1547.64  24.296  37.718
1548.14  24.296  37.718
1548.64  24.322  37.718
1549.14  24.296  37.791
1549.64  24.270  37.718
1550.14  24.270  37.791
1550.64  24.322  37.718
1551.14  24.296  37.791
1551.64  24.270  37.718
1552.14  24.296  37.718
1552.64  24.270  37.718
1553.14  24.296  37.791
1553.64  24.296  37.718
1554.14  24.296  37.718
1554.64  24.270  37.791
1555.14  24.296  37.718
1555.64  24.296  37.791
1556.14  24.296  37.718
1556.64  24.296  37.718
1557.14  24.322  37.718
1557.64  24.270  37.791
1558.14  24.296  37.718
1558.64  24.296  37.718
1559.14  24.322  37.718
1559.64  24.296  37.718
1560.14  24.296  37.791
1560.64  24.296  37.718
1561.14  24.296  37.864
1561.64  24.296  37.791
1562.14  24.296  37.791
1562.64  24.296  37.791
1563.14  24.322  37.718
1563.64  24.296  37.791
1564.14  24.296  37.718
1564.64  24.296  37.864
1565.14  24.296  37.791
1565.64  24.296  37.791
1566.14  24.296  37.791
1566.64  24.296  37.791
1567.14  24.296  37.791
1567.64  24.296  37.791
1568.14  24.296  37.718
1568.64  24.296  37.791
1569.14  24.296  37.791
1569.64  24.218  37.718
1570.14  24.296  37.791
1570.64  24.296  37.791
1571.14  24.270  37.718
1571.64  24.296  37.718
1572.14  24.296  37.791
1572.64  24.296  37.864
1573.14  24.296  37.791
1573.64  24.270  37.791
1574.14  24.296  37.791
1574.64  24.322  37.791
1575.14  24.270  37.791
1575.64  24.296  37.864
1576.14  24.270  37.791
1576.64  24.296  37.791
1577.14  24.322  37.791
1577.64  24.322  37.791
1578.14  24.322  37.718
1578.64  24.296  37.791
1579.14  24.296  37.791
1579.64  24.270  37.791
1580.14  24.296  37.791
1580.64  24.296  37.791
1581.14  24.296  37.938
1581.64  24.296  37.791
1582.14  24.296  37.864
1582.64  24.296  37.791
1583.14  24.322  37.864
1583.64  24.296  37.791
1584.14  24.296  37.864
1584.64  24.296  37.791
1585.14  24.296  37.791
1585.64  24.296  37.791
1586.14  24.296  37.718
1586.64  24.375  37.791
1587.14  24.322  37.864
1587.64  24.296  37.791
1588.14  24.296  37.791
1588.64  24.296  37.791
1589.14  24.244  37.718
1589.64  24.296  37.864
1590.14  24.322  37.791
1590.64  24.296  37.791
1591.14  24.322  37.938
1591.64  24.322  37.791
1592.14  24.296  37.791
1592.64  24.348  37.791
1593.14  24.296  37.791
1593.64  24.296  37.791
1594.14  24.322  37.791
1594.64  24.296  37.791
1595.14  24.296  37.791
1595.64  24.296  37.791
1596.14  24.296  37.791
1596.64  24.296  37.791
1597.14  24.296  37.791
1597.64  24.348  37.864
1598.14  24.296  37.938
1598.64  24.296  37.791
1599.14  24.296  37.791
1599.64  24.296  37.791
1600.14  24.296  37.791
1600.64  24.296  37.791
1601.14  24.296  37.791
1601.64  24.322  37.718
1602.14  24.322  37.791
1602.64  24.296  37.791
1603.14  24.322  37.791
1603.64  24.296  37.791
1604.14  24.322  37.791
1604.64  24.296  37.791
1605.14  24.375  37.791
1605.64  24.296  37.791
1606.14  24.296  37.791
1606.64  24.322  37.938
1607.14  24.296  37.718
1607.64  24.296  37.864
1608.14  24.296  37.864
1608.64  24.296  37.791
1609.14  24.296  37.791
1609.64  24.296  37.864
1610.14  24.296  37.718
1610.64  24.296  37.864
1611.14  24.296  37.791
1611.64  24.322  37.864
1612.14  24.296  37.718
1612.64  24.296  37.864
1613.14  24.296  37.791
1613.64  24.348  37.938
1614.14  24.322  37.791
1614.64  24.322  37.791
1615.14  24.296  37.791
1615.64  24.322  37.791
1616.14  24.322  37.791
1616.64  24.296  37.864
1617.14  24.348  37.864
1617.64  24.348  37.791
1618.14  24.296  37.791
1618.64  24.296  37.864
1619.14  24.296  37.864
1619.64  24.296  37.791
1620.14  24.296  37.864
1620.64  24.322  37.864
1621.14  24.322  37.864
1621.64  24.296  37.791
1622.14  24.296  37.864
1622.64  24.296  37.791
1623.14  24.322  37.864
1623.64  24.296  37.791
1624.14  24.296  37.864
1624.64  24.322  37.864
1625.14  24.296  37.864
1625.64  24.296  37.864
1626.14  24.296  37.791
1626.64  24.322  37.864
1627.14  24.322  37.864
1627.64  24.296  37.864
1628.14  24.296  37.864
1628.64  24.322  37.864
1629.14  24.296  37.791
1629.64  24.322  37.718
1630.14  24.296  37.791
1630.64  24.296  37.864
1631.14  24.296  37.864
1631.64  24.296  37.864
1632.14  24.348  37.791
1632.64  24.322  37.864
1633.14  24.322  37.864
1633.64  24.322  37.864
1634.14  24.296  37.791
1634.64  24.348  37.864
1635.14  24.296  37.864
1635.64  24.296  37.864
1636.14  24.296  37.864
1636.64  24.296  37.864
1637.14  24.296  37.864
1637.64  24.296  37.791
1638.14  24.296  37.864
1638.64  24.296  37.864
1639.14  24.296  37.791
1639.64  24.296  37.864
1640.14  24.348  37.864
1640.64  24.322  37.864
1641.14  24.322  37.864
1641.64  24.296  37.864
1642.14  24.322  37.938
1642.65  24.296  37.864
1643.15  24.270  37.864
1643.65  24.296  37.864
1644.15  24.296  37.864
1644.65  24.322  37.864
1645.15  24.296  37.864
1645.65  24.296  37.864
1646.15  24.296  37.864
1646.65  24.322  37.938
1647.15  24.322  37.864
1647.65  24.296  37.864
1648.15  24.296  37.864
1648.65  24.296  37.864
1649.15  24.296  37.864
1649.65  24.296  37.864
1650.15  24.296  37.864
1650.65  24.296  37.938
1651.15  24.296  37.791
1651.65  24.296  37.864
1652.15  24.296  37.938
1652.65  24.322  37.864
1653.15  24.296  37.864
1653.65  24.296  37.864
1654.15  24.296  37.938
1654.65  24.296  37.864
1655.15  24.322  37.938
1655.65  24.296  37.864
1656.15  24.296  37.718
1656.65  24.296  37.864
1657.15  24.322  37.791
1657.65  24.296  37.864
1658.15  24.296  37.864
1658.65  24.296  37.938
1659.15  24.322  37.864
1659.65  24.296  37.938
1660.15  24.322  37.864
1660.65  24.296  37.864
1661.15  24.296  37.864
1661.65  24.296  37.864
1662.15  24.348  37.938
1662.65  24.296  37.864
1663.15  24.322  37.864
1663.65  24.296  37.864
1664.15  24.296  37.864
1664.65  24.296  37.938
1665.15  24.296  37.938
1665.65  24.296  37.864
1666.15  24.296  37.864
1666.65  24.322  37.864
1667.15  24.322  37.864
1667.65  24.296  37.864
1668.15  24.322  38.011
1668.65  24.270  37.864
1669.15  24.322  37.791
1669.65  24.322  37.791
1670.15  24.296  37.938
1670.65  24.322  37.864
1671.15  24.218  37.864
1671.65  24.322  37.864
1672.15  24.322  37.938
1672.65  24.296  37.864
1673.15  24.322  37.864
1673.65  24.348  37.864
1674.15  24.296  37.864
1674.65  24.322  37.864
1675.15  24.296  37.864
1675.65  24.322  37.938
1676.15  24.270  37.864
1676.65  24.296  37.938
1677.15  24.296  37.864
1677.65  24.296  37.864
1678.15  24.296  37.791
1678.65  24.322  37.864
1679.15  24.322  37.864
1679.65  24.296  37.864
1680.15  24.296  37.864
1680.65  24.322  37.864
1681.15  24.296  37.938
1681.65  24.296  37.864
1682.15  24.322  37.718
1682.65  24.296  37.938
1683.15  24.322  37.864
1683.65  24.296  37.864
1684.15  24.296  37.864
1684.65  24.322  37.864
1685.15  24.322  37.864
1685.65  24.322  37.864
1686.15  24.296  37.864
1686.65  24.322  37.864
1687.15  24.296  37.864
1687.65  24.296  37.864
1688.15  24.296  37.864
1688.65  24.348  37.864
1689.15  24.322  37.938
1689.65  24.270  37.938
1690.15  24.296  37.864
1690.65  24.322  37.864
1691.15  24.322  37.864
1691.65  24.322  37.864
1692.15  24.322  37.864
1692.65  24.322  37.864
1693.15  24.322  37.938
1693.65  24.322  37.864
1694.15  24.296  37.938
1694.65  24.296  37.864
1695.15  24.322  37.938
1695.65  24.348  37.938
1696.15  24.296  38.011
1696.65  24.322  37.938
1697.15  24.270  37.864
1697.65  24.296  37.864
1698.15  24.322  37.938
1698.65  24.322  37.864
1699.15  24.296  37.864
1699.65  24.296  37.938
1700.15  24.296  37.791
1700.65  24.296  37.864
1701.15  24.322  37.864
1701.65  24.322  37.864
1702.15  24.322  37.864
1702.65  24.296  37.864
1703.15  24.322  37.864
1703.65  24.322  37.864
1704.15  24.322  37.938
1704.65  24.322  37.791
1705.15  24.348  37.938
1705.65  24.322  37.938
1706.15  24.296  37.864
1706.65  24.348  37.864
1707.15  24.322  37.938
1707.65  24.270  37.864
1708.15  24.296  37.864
1708.65  24.270  37.938
1709.15  24.322  37.938
1709.65  24.348  37.864
1710.15  24.296  37.938
1710.65  24.296  38.011
1711.15  24.322  37.938
1711.65  24.322  37.864
1712.15  24.296  37.864
1712.65  24.296  37.864
1713.15  24.296  37.864
1713.65  24.296  37.864
1714.15  24.296  37.938
1714.65  24.322  37.791
1715.15  24.296  37.938
1715.65  24.322  37.864
1716.15  24.322  37.864
1716.65  24.296  37.938
1717.15  24.296  37.938
1717.65  24.296  37.938
1718.15  24.296  37.938
1718.65  24.296  37.938
1719.15  24.322  37.938
1719.65  24.296  37.938
1720.15  24.322  37.864
1720.65  24.296  37.938
1721.15  24.322  37.864
1721.65  24.296  37.938
1722.15  24.296  37.938
1722.65  24.296  37.938
1723.15  24.296  37.938
1723.65  24.270  37.938
1724.15  24.296  37.938
1724.65  24.322  37.864
1725.15  24.322  37.938
1725.65  24.270  37.938
1726.15  24.296  37.864
1726.65  24.296  37.864
1727.15  24.322  37.938
1727.65  24.322  37.864
1728.15  24.348  37.864
1728.65  24.322  38.011
1729.15  24.296  37.864
1729.65  24.322  37.864
1730.15  24.296  37.791
1730.65  24.322  37.864
1731.15  24.296  37.938
1731.65  24.296  37.864
1732.15  24.322  37.938
1732.65  24.322  37.938
1733.15  24.322  37.938
1733.65  24.296  37.864
1734.15  24.296  37.938
1734.65  24.322  37.938
1735.15  24.322  37.938
1735.65  24.322  37.938
1736.15  24.322  37.864
1736.65  24.296  37.938
1737.15  24.322  37.864
1737.65  24.322  37.938
1738.15  24.322  37.864
1738.65  24.322  37.864
1739.15  24.296  38.011
1739.65  24.322  37.864
1740.15  24.322  37.938
1740.65  24.348  37.938
1741.15  24.322  37.938
1741.65  24.322  37.938
1742.15  24.322  37.938
1742.65  24.322  37.864
1743.15  24.296  37.938
1743.65  24.322  37.938
1744.15  24.296  37.938
1744.65  24.322  37.938
1745.15  24.322  37.938
1745.65  24.296  37.938
1746.15  24.322  37.938
1746.65  24.322  37.938
1747.15  24.322  37.938
1747.65  24.322  37.938
1748.15  24.296  37.938
1748.65  24.322  37.938
1749.15  24.322  37.938
1749.65  24.322  37.938
1750.15  24.322  37.864
1750.65  24.322  37.938
1751.15  24.322  37.938
1751.65  24.322  37.938
1752.15  24.322  37.864
1752.65  24.322  37.938
1753.15  24.322  37.938
1753.65  24.322  37.938
1754.15  24.322  37.864
1754.65  24.348  37.938
1755.15  24.322  37.864
1755.66  24.322  37.938
1756.16  24.296  37.938
1756.66  24.296  37.938
1757.16  24.322  37.938
1757.66  24.322  37.864
1758.16  24.322  37.791
1758.66  24.322  37.938
1759.16  24.322  38.011
1759.66  24.348  37.938
1760.16  24.270  37.938
1760.66  24.322  38.011
1761.16  24.348  37.938
1761.66  24.322  37.938
1762.16  24.296  37.938
1762.66  24.322  37.938
1763.16  24.296  37.864
1763.66  24.322  37.938
1764.16  24.322  37.938
1764.66  24.348  37.938
1765.16  24.322  37.938
1765.66  24.322  37.938
1766.16  24.296  37.864
1766.66  24.322  37.938
1767.16  24.322  38.011
1767.66  24.296  38.011
1768.16  24.322  37.938
1768.66  24.322  37.938
1769.16  24.348  38.011
1769.66  24.348  37.938
1770.16  24.322  37.938
1770.66  24.322  37.864
1771.16  24.322  38.011
1771.66  24.296  37.938
1772.16  24.348  37.938
1772.66  24.348  38.011
1773.16  24.322  37.938
1773.66  24.296  38.011
1774.16  24.348  37.938
1774.66  24.296  38.011
1775.16  24.348  37.938
1775.66  24.322  38.011
1776.16  24.322  37.864
1776.66  24.296  37.938
1777.16  24.322  37.938
1777.66  24.322  38.011
1778.16  24.322  37.864
1778.66  24.348  38.011
1779.16  24.296  37.938
1779.66  24.375  37.938
1780.16  24.296  37.938
1780.66  24.322  38.011
1781.16  24.348  37.938
1781.66  24.322  37.864
1782.16  24.348  38.011
1782.66  24.322  37.938
1783.16  24.348  38.084
1783.66  24.322  37.938
1784.16  24.296  38.011
1784.66  24.322  37.938
1785.16  24.348  37.864
1785.66  24.322  38.011
1786.16  24.322  37.938
1786.66  24.296  38.011
1787.16  24.348  37.938
1787.66  24.322  38.011
1788.16  24.322  38.011
1788.66  24.322  37.938
1789.16  24.348  38.011
1789.66  24.348  38.011
1790.16  24.322  37.938
1790.66  24.322  37.938
1791.16  24.322  37.938
1791.66  24.322  37.938
1792.16  24.348  38.011
1792.66  24.322  37.938
1793.16  24.322  37.938
1793.66  24.322  38.011
1794.16  24.296  38.011
1794.66  24.375  38.011
1795.16  24.322  38.011
1795.66  24.348  38.011
1796.16  24.322  38.011
1796.66  24.322  38.084
1797.16  24.322  37.938
1797.66  24.322  38.011
1798.16  24.322  38.011
1798.66  24.322  38.011
1799.16  24.348  38.011
1799.66  24.322  37.864
1800.16  24.270  37.938
1800.66  24.322  38.011
1801.16  24.296  38.011
1801.66  24.322  38.011
1802.16  24.322  37.938
1802.66  24.348  37.938
1803.16  24.322  38.011
1803.66  24.322  38.011
1804.16  24.322  38.011
1804.66  24.322  37.938
1805.16  24.322  37.938
1805.66  24.322  38.011
1806.16  24.296  37.938
1806.66  24.322  38.011
1807.16  24.348  37.938
1807.66  24.322  38.011
1808.16  24.322  38.011
1808.66  24.322  38.011
1809.16  24.348  37.938
1809.66  24.296  38.011
1810.16  24.296  38.011
1810.66  24.348  38.011
1811.16  24.322  38.011
1811.66  24.348  38.011
1812.16  24.322  37.864
1812.66  24.322  38.011
1813.16  24.348  38.011
1813.66  24.322  37.938
1814.16  24.322  38.011
1814.66  24.348  38.011
1815.16  24.322  37.938
1815.66  24.296  37.938
1816.16  24.322  38.011
1816.66  24.322  37.938
1817.16  24.322  38.011
1817.66  24.296  37.938
1818.16  24.348  38.011
1818.66  24.322  38.011
1819.16  24.296  38.084
1819.66  24.322  38.011
1820.16  24.348  37.938
1820.66  24.322  38.011
1821.16  24.322  38.011
1821.66  24.322  38.011
1822.16  24.348  38.011
1822.66  24.322  37.938
1823.16  24.322  37.938
1823.66  24.348  37.938
1824.16  24.322  37.938
1824.66  24.322  37.864
1825.16  24.322  38.011
1825.66  24.322  38.011
1826.16  24.322  38.011
1826.66  24.322  38.011
1827.16  24.322  38.011
1827.66  24.322  38.011
1828.16  24.322  38.011
1828.66  24.322  38.011
1829.16  24.348  38.011
1829.66  24.348  38.011
1830.16  24.322  38.011
1830.66  24.322  37.938
1831.16  24.322  37.938
1831.66  24.296  38.011
1832.16  24.348  38.011
1832.66  24.322  38.011
1833.16  24.322  38.011
1833.66  24.348  38.011
1834.16  24.348  38.084
1834.66  24.348  37.938
1835.16  24.322  38.011
1835.66  24.322  38.011
1836.16  24.348  38.011
1836.66  24.322  38.011
1837.16  24.322  38.011
1837.66  24.322  38.011
1838.16  24.322  38.084
1838.66  24.348  38.011
1839.16  24.348  37.938
1839.66  24.348  37.938
1840.16  24.375  38.084
1840.66  24.348  38.011
1841.16  24.348  38.011
1841.66  24.322  38.011
1842.16  24.348  38.011
1842.66  24.348  38.011
1843.16  24.322  38.011
1843.66  24.348  38.011
1844.16  24.348  37.938
1844.66  24.348  38.011
1845.16  24.375  38.011
1845.66  24.348  38.084
1846.16  24.322  38.084
1846.66  24.322  38.011
1847.16  24.348  38.011
1847.66  24.375  38.011
1848.16  24.348  38.011
1848.66  24.375  38.011
1849.16  24.348  38.011
1849.66  24.348  38.011
1850.16  24.348  38.011
1850.66  24.348  38.011
1851.16  24.348  38.011
1851.66  24.348  38.011
1852.16  24.322  38.011
1852.66  24.348  38.011
1853.16  24.322  38.084
1853.66  24.348  38.084
1854.16  24.322  38.084
1854.66  24.348  38.011
1855.16  24.401  38.084
1855.66  24.348  38.011
1856.16  24.348  38.011
1856.66  24.322  38.011
1857.16  24.348  38.084
1857.66  24.348  38.084
1858.16  24.348  38.011
1858.66  24.322  38.084
1859.16  24.348  38.011
1859.66  24.348  38.011
1860.16  24.322  38.011
1860.66  24.348  38.011
1861.16  24.348  38.011
1861.66  24.322  38.011
1862.16  24.322  37.938
1862.66  24.322  38.011
1863.16  24.348  38.011
1863.66  24.348  38.011
1864.16  24.322  38.084
1864.66  24.375  38.011
1865.16  24.348  37.938
1865.66  24.322  38.011
1866.16  24.322  38.084
1866.66  24.348  37.938
1867.16  24.348  38.011
1867.66  24.322  38.011
1868.16  24.322  38.011
1868.66  24.322  38.084
1869.17  24.348  38.011
1869.67  24.348  38.011
1870.17  24.348  38.011
1870.67  24.348  38.011
1871.17  24.348  38.084
1871.67  24.348  38.084
1872.17  24.375  38.011
1872.67  24.348  37.938
1873.17  24.322  37.938
1873.67  24.348  38.011
1874.17  24.348  38.084
1874.67  24.322  38.011
1875.17  24.296  38.084
1875.67  24.348  38.011
1876.17  24.348  38.011
1876.67  24.348  38.011
1877.17  24.322  38.011
1877.67  24.348  38.084
1878.17  24.296  38.158
1878.67  24.348  38.084
1879.17  24.348  38.011
1879.67  24.322  38.084
1880.17  24.348  38.011
1880.67  24.348  38.011
1881.17  24.348  38.084
1881.67  24.348  38.084
1882.17  24.348  38.084
1882.67  24.375  38.084
1883.17  24.348  38.158
1883.67  24.322  38.084
1884.17  24.348  38.084
1884.67  24.348  38.011
1885.17  24.322  38.084
1885.67  24.348  38.084
1886.17  24.375  38.011
1886.67  24.322  38.011
1887.17  24.348  38.084
1887.67  24.348  38.011
1888.17  24.348  38.011
1888.67  24.348  38.011
1889.17  24.348  38.084
1889.67  24.322  38.084
1890.17  24.348  38.084
1890.67  24.348  38.084
1891.17  24.348  38.011
1891.67  24.348  38.084
1892.17  24.348  38.011
1892.67  24.348  38.011
1893.17  24.348  38.084
1893.67  24.348  38.084
1894.17  24.375  38.011
1894.67  24.348  37.938
1895.17  24.348  38.011
1895.67  24.348  38.084
1896.17  24.348  38.084
1896.67  24.322  37.864
1897.17  24.348  38.011
1897.67  24.322  38.084
1898.17  24.348  38.011
1898.67  24.348  38.011
1899.17  24.348  38.084
1899.67  24.348  38.084
1900.17  24.348  38.011
1900.67  24.348  38.084
1901.17  24.348  38.011
1901.67  24.348  38.011
1902.17  24.348  38.011
1902.67  24.348  38.084
1903.17  24.348  38.011
1903.67  24.348  38.011
1904.17  24.348  38.084
1904.67  24.322  38.084
1905.17  24.348  38.084
1905.67  24.322  38.011
1906.17  24.348  38.011
1906.67  24.348  38.084
1907.17  24.348  38.084
1907.67  24.348  38.084
1908.17  24.322  38.084
1908.67  24.348  38.084
1909.17  24.375  38.011
1909.67  24.348  38.011
1910.17  24.348  38.084
1910.67  24.375  38.011
1911.17  24.322  38.084
1911.67  24.375  38.011
1912.17  24.348  38.084
1912.67  24.348  38.084
1913.17  24.348  38.011
1913.67  24.348  38.011
1914.17  24.348  38.084
1914.67  24.348  38.011
1915.17  24.348  38.084
1915.67  24.348  38.084
1916.17  24.348  38.084
1916.67  24.322  38.084
1917.17  24.322  38.084
1917.67  24.348  38.011
1918.17  24.322  38.158
1918.67  24.348  38.011
1919.17  24.348  38.158
1919.67  24.348  38.084
1920.17  24.348  38.084
1920.67  24.322  38.084
1921.17  24.322  38.158
1921.67  24.348  38.011
1922.17  24.322  38.158
1922.67  24.348  38.084
1923.17  24.348  38.084
1923.67  24.348  38.084
1924.17  24.348  38.011
1924.67  24.348  38.084
1925.17  24.348  38.084
1925.67  24.348  38.084
1926.17  24.348  38.084
1926.67  24.348  38.084
1927.17  24.322  38.084
1927.67  24.348  38.011
1928.17  24.348  38.084
1928.67  24.348  38.011
1929.17  24.348  38.084
1929.67  24.348  38.084
1930.17  24.348  38.084
1930.67  24.375  38.084
1931.17  24.348  38.084
1931.67  24.296  38.011
1932.17  24.375  38.084
1932.67  24.348  38.011
1933.17  24.322  38.084
1933.67  24.348  38.011
1934.17  24.348  38.084
1934.67  24.322  38.084
1935.17  24.348  38.084
1935.67  24.348  38.084
1936.17  24.348  38.011
1936.67  24.375  38.084
1937.17  24.348  38.011
1937.67  24.348  38.084
1938.17  24.348  38.158
1938.67  24.375  38.084
1939.17  24.348  38.158
1939.67  24.348  38.084
1940.17  24.348  38.158
1940.67  24.348  38.084
1941.17  24.348  38.011
1941.67  24.348  38.084
1942.17  24.348  38.011
1942.67  24.322  38.158
1943.17  24.322  38.084
1943.67  24.348  38.084
1944.17  24.348  38.011
1944.67  24.322  38.084
1945.17  24.322  38.084
1945.67  24.348  38.084
1946.17  24.348  38.084
1946.67  24.348  38.084
1947.17  24.348  38.158
1947.67  24.375  38.084
1948.17  24.348  38.084
1948.67  24.348  38.084
1949.17  24.348  38.084
1949.67  24.375  38.084
1950.17  24.322  38.084
1950.67  24.348  38.084
1951.17  24.375  38.084
1951.67  24.322  38.084
1952.17  24.348  37.938
1952.67  24.348  38.084
1953.17  24.375  38.084
1953.67  24.322  38.084
1954.17  24.375  38.084
1954.67  24.348  38.084
1955.17  24.375  38.084
1955.67  24.322  38.084
1956.17  24.348  38.084
1956.67  24.375  38.084
1957.17  24.348  38.084
1957.67  24.348  38.084
1958.17  24.348  38.158
1958.67  24.348  38.084
1959.17  24.348  38.084
1959.67  24.348  38.084
1960.17  24.348  38.084
1960.67  24.348  38.084
1961.17  24.348  38.158
1961.67  24.375  38.084
1962.17  24.348  38.084
1962.67  24.348  38.084
1963.17  24.375  38.084
1963.67  24.348  38.084
1964.17  24.375  38.084
1964.67  24.348  38.158
1965.17  24.348  38.158
1965.67  24.348  38.084
1966.17  24.322  38.158
1966.67  24.348  38.084
1967.17  24.348  38.084
1967.67  24.348  38.084
1968.17  24.322  38.158
1968.67  24.348  38.084
1969.17  24.348  38.158
1969.67  24.348  38.158
1970.17  24.348  38.231
1970.67  24.375  38.084
1971.17  24.401  38.158
1971.67  24.348  38.084
1972.17  24.348  38.158
1972.67  24.375  38.158
1973.17  24.322  38.011
1973.67  24.348  38.084
1974.17  24.375  38.158
1974.67  24.375  38.158
1975.17  24.348  38.084
1975.67  24.348  38.158
1976.17  24.348  38.304
1976.67  24.322  38.084
1977.17  24.348  38.158
1977.67  24.375  38.011
1978.17  24.348  38.158
1978.67  24.322  38.084
1979.17  24.348  38.158
1979.67  24.375  38.231
1980.17  24.348  38.158
1980.67  24.322  38.084
1981.17  24.348  38.158
1981.67  24.348  38.084
1982.18  24.348  38.084
1982.68  24.348  38.084
1983.18  24.348  38.084
1983.68  24.348  38.084
1984.18  24.322  38.158
1984.68  24.348  38.158
1985.18  24.348  38.084
1985.68  24.348  38.084
1986.18  24.322  38.084
1986.68  24.375  38.084
1987.18  24.375  38.084
1987.68  24.375  38.084
1988.18  24.322  38.084
1988.68  24.348  38.158
1989.18  24.348  38.158
1989.68  24.322  38.084
1990.18  24.375  38.084
1990.68  24.322  38.084
1991.18  24.348  38.084
1991.68  24.348  38.084
1992.18  24.348  38.084
1992.68  24.348  38.158
1993.18  24.348  38.084
1993.68  24.348  38.158
1994.18  24.375  38.158
1994.68  24.348  38.084
1995.18  24.322  38.084
1995.68  24.348  38.158
1996.18  24.348  38.158
1996.68  24.322  37.938
1997.18  24.348  38.158
1997.68  24.348  38.158
1998.18  24.348  38.011
1998.68  24.348  38.084
1999.18  24.322  38.158
1999.68  24.348  38.158
2000.18  24.375  38.158
2000.68  24.322  38.084
2001.18  24.348  38.158
2001.68  24.348  38.084
2002.18  24.348  38.084
2002.68  24.348  38.158
2003.18  24.348  38.158
2003.68  24.348  38.158
2004.18  24.375  38.158
2004.68  24.348  38.158
2005.18  24.348  38.158
2005.68  24.375  38.084
2006.18  24.348  38.158
2006.68  24.375  38.158
2007.18  24.348  38.158
2007.68  24.375  38.158
2008.18  24.348  38.084
2008.68  24.375  38.084
2009.18  24.375  38.158
2009.68  24.348  38.158
2010.18  24.348  38.158
2010.68  24.348  38.158
2011.18  24.348  38.158
2011.68  24.348  38.158
2012.18  24.375  38.231
2012.68  24.348  38.158
2013.18  24.348  38.084
2013.68  24.348  38.158
2014.18  24.348  38.084
2014.68  24.348  38.158
2015.18  24.375  38.084
2015.68  24.348  38.158
2016.18  24.375  38.158
2016.68  24.348  38.158
2017.18  24.375  38.158
2017.68  24.375  38.158
2018.18  24.375  38.158
2018.68  24.375  38.084
2019.18  24.375  38.158
2019.68  24.348  38.158
2020.18  24.348  38.084
2020.68  24.322  38.158
2021.18  24.375  38.158
2021.68  24.348  38.158
2022.18  24.348  38.084
2022.68  24.348  38.158
2023.18  24.375  38.231
2023.68  24.348  38.158
2024.18  24.348  38.158
2024.68  24.348  38.158
2025.18  24.348  38.158
2025.68  24.348  38.084
2026.18  24.348  38.158
2026.68  24.348  38.158
2027.18  24.348  38.158
2027.68  24.348  38.158
2028.18  24.348  38.158
2028.68  24.348  38.158
2029.18  24.348  38.084
2029.68  24.322  38.084
2030.18  24.348  38.158
2030.68  24.348  38.158
2031.18  24.348  38.231
2031.68  24.375  38.158
2032.18  24.375  38.158
2032.68  24.348  38.231
2033.18  24.375  38.158
2033.68  24.375  38.158
2034.18  24.348  38.084
2034.68  24.348  38.158
2035.18  24.348  38.158
2035.68  24.322  38.158
2036.18  24.348  38.158
2036.68  24.375  38.158
2037.18  24.375  38.158
2037.68  24.375  38.084
2038.18  24.322  38.158
2038.68  24.348  38.158
2039.18  24.375  38.158
2039.68  24.322  38.158
2040.18  24.375  38.158
2040.68  24.375  38.231
2041.18  24.348  38.084
2041.68  24.375  38.084
2042.18  24.348  38.158
2042.68  24.348  38.158
2043.18  24.348  38.158
2043.68  24.348  38.158
2044.18  24.348  38.231
2044.68  24.348  38.084
2045.18  24.322  38.158
2045.68  24.348  38.158
2046.18  24.348  38.158
2046.68  24.348  38.158
2047.18  24.401  38.231
2047.68  24.348  38.158
2048.18  24.322  38.158
2048.68  24.322  38.158
2049.18  24.375  38.084
2049.68  24.375  38.231
2050.18  24.401  38.084
2050.68  24.348  38.084
2051.18  24.348  38.084
2051.68  24.348  38.158
2052.18  24.348  38.231
2052.68  24.348  38.084
2053.18  24.348  38.158
2053.68  24.375  38.158
2054.18  24.375  38.231
2054.68  24.322  38.158
2055.18  24.348  38.158
2055.68  24.375  38.158
2056.18  24.375  38.158
2056.68  24.375  38.231
2057.18  24.375  38.231
2057.68  24.401  38.158
2058.18  24.348  38.158
2058.68  24.322  38.158
2059.18  24.375  38.158
2059.68  24.348  38.231
2060.18  24.375  38.158
2060.68  24.322  38.304
2061.18  24.348  38.158
2061.68  24.348  38.158
2062.18  24.348  38.158
2062.68  24.375  38.158
2063.18  24.375  38.158
2063.68  24.348  38.158
2064.18  24.348  38.231
2064.68  24.348  38.158
2065.18  24.348  38.158
2065.68  24.348  38.011
2066.18  24.348  38.158
2066.68  24.375  38.158
2067.18  24.348  38.158
2067.68  24.348  38.158
2068.18  24.348  38.158
2068.68  24.348  38.158
2069.18  24.348  38.158
2069.68  24.348  38.158
2070.18  24.401  38.158
2070.68  24.401  38.158
2071.18  24.375  38.158
2071.68  24.636  38.158
2072.18  24.348  38.084
2072.68  24.375  38.158
2073.18  24.348  38.158
2073.68  24.348  38.158
2074.18  24.348  38.158
2074.68  24.375  38.158
2075.18  24.348  38.158
2075.68  24.401  38.084
2076.18  24.348  38.158
2076.68  24.348  38.158
2077.18  24.375  38.231
2077.68  24.322  38.231
2078.18  24.375  38.231
2078.68  24.348  38.158
2079.18  24.375  38.158
2079.68  24.348  38.158
2080.18  24.322  38.158
2080.68  24.348  38.158
2081.18  24.348  38.231
2081.68  24.348  38.158
2082.18  24.348  38.158
2082.68  24.348  38.231
2083.18  24.401  38.231
2083.68  24.375  38.158
2084.18  24.375  38.231
2084.68  24.375  38.158
2085.18  24.348  38.158
2085.68  24.348  38.158
2086.18  24.375  38.158
2086.68  24.375  38.158
2087.18  24.348  38.158
2087.68  24.375  38.158
2088.18  24.375  38.158
2088.68  24.348  38.231
2089.18  24.348  38.158
2089.68  24.375  38.231
2090.18  24.375  38.158
2090.68  24.375  38.158
2091.18  24.348  38.158
2091.68  24.375  38.158
2092.18  24.375  38.231
2092.68  24.348  38.304
2093.18  24.348  38.084
2093.68  24.375  38.158
2094.18  24.348  38.158
2094.68  24.401  38.084
2095.19  24.348  38.231
2095.69  24.348  38.158
2096.19  24.348  38.158
2096.69  24.375  38.158
2097.19  24.375  38.231
2097.69  24.375  38.158
2098.19  24.375  38.158
2098.69  24.348  38.231
2099.19  24.375  38.158
2099.69  24.401  38.158
2100.19  24.375  38.231
2100.69  24.375  38.231
2101.19  24.375  38.158
2101.69  24.375  38.158
2102.19  24.348  38.231
2102.69  24.348  38.231
2103.19  24.375  38.158
2103.69  24.375  38.231
2104.19  24.375  38.231
2104.69  24.375  38.231
2105.19  24.401  38.304
2105.69  24.375  38.231
2106.19  24.375  38.231
2106.69  24.348  38.158
2107.19  24.375  38.231
2107.69  24.401  38.158
2108.19  24.375  38.231
2108.69  24.348  38.231
2109.19  24.348  38.231
2109.69  24.375  38.231
2110.19  24.375  38.231
2110.69  24.375  38.231
2111.19  24.375  38.231
2111.69  24.375  38.158
2112.19  24.401  38.231
2112.69  24.401  38.158
2113.19  24.401  38.231
2113.69  24.401  38.231
2114.19  24.375  38.231
2114.69  24.401  38.158
2115.19  24.375  38.231
2115.69  24.348  38.158
2116.19  24.375  38.231
2116.69  24.375  38.158
2117.19  24.375  38.231
2117.69  24.375  38.304
2118.19  24.375  38.231
2118.69  24.401  38.231
2119.19  24.375  38.231
2119.69  24.375  38.231
2120.19  24.401  38.158
2120.69  24.375  38.231
2121.19  24.401  38.231
2121.69  24.348  38.231
2122.19  24.348  38.304
2122.69  24.375  38.158
2123.19  24.348  38.304
2123.69  24.375  38.231
2124.19  24.348  38.231
2124.69  24.375  38.231
2125.19  24.375  38.231
2125.69  24.375  38.231
2126.19  24.375  38.158
2126.69  24.375  38.231
2127.19  24.375  38.231
2127.69  24.322  38.378
2128.19  24.375  38.231
2128.69  24.375  38.231
2129.19  24.375  38.304
2129.69  24.375  38.231
2130.19  24.348  38.231
2130.69  24.375  38.158
2131.19  24.375  38.231
2131.69  24.375  38.158
2132.19  24.401  38.158
2132.69  24.348  38.231
2133.19  24.375  38.231
2133.69  24.401  38.304
2134.19  24.401  38.231
2134.69  24.375  38.231
2135.19  24.375  38.231
2135.69  24.348  38.231
2136.19  24.375  38.231
2136.69  24.375  38.231
2137.19  24.401  38.304
2137.69  24.348  38.231
2138.19  24.375  38.158
2138.69  24.401  38.231
2139.19  24.401  38.231
2139.69  24.348  38.158
2140.19  24.375  38.231
2140.69  24.375  38.231
2141.19  24.401  38.158
2141.69  24.375  38.231
2142.19  24.375  38.304
2142.69  24.375  38.158
2143.19  24.375  38.231
2143.69  24.375  38.231
2144.19  24.375  38.304
2144.69  24.375  38.304
2145.19  24.375  38.231
2145.69  24.348  38.231
2146.19  24.375  38.158
2146.69  24.375  38.231
2147.19  24.375  38.231
2147.69  24.348  38.158
2148.19  24.348  38.231
2148.69  24.375  38.231
2149.19  24.375  38.158
2149.69  24.375  38.231
2150.19  24.401  38.231
2150.69  24.375  38.231
2151.19  24.375  38.231
2151.69  24.348  38.231
2152.19  24.375  38.304
2152.69  24.348  38.231
2153.19  24.375  38.231
2153.69  24.375  38.231
2154.19  24.348  38.158
2154.69  24.375  38.231
2155.19  24.375  38.231
2155.69  24.375  38.231
2156.19  24.375  38.231
2156.69  24.375  38.304
2157.19  24.348  38.231
2157.69  24.348  38.231
2158.19  24.375  38.231
2158.69  24.375  38.231
2159.19  24.375  38.231
2159.69  24.375  38.231
2160.19  24.348  38.231
2160.69  24.375  38.231
2161.19  24.401  38.304
2161.69  24.375  38.231
2162.19  24.375  38.231
2162.69  24.348  38.231
2163.19  24.375  38.231
2163.69  24.375  38.231
2164.19  24.375  38.231
2164.69  24.348  38.231
2165.19  24.348  38.231
2165.69  24.348  38.231
2166.19  24.348  38.231
2166.69  24.375  38.158
2167.19  24.375  38.231
2167.69  24.375  38.231
2168.19  24.375  38.231
2168.69  24.401  38.231
2169.19  24.348  38.084
2169.69  24.375  38.158
2170.19  24.375  38.158
2170.69  24.401  38.231
2171.19  24.375  38.084
2171.69  24.348  38.158
2172.19  24.375  38.231
2172.69  24.375  38.231
2173.19  24.375  38.304
2173.69  24.348  38.304
2174.19  24.348  38.158
2174.69  24.375  38.158
2175.19  24.375  38.231
2175.69  24.375  38.158
2176.19  24.375  38.231
2176.69  24.375  38.231
2177.19  24.375  38.231
2177.69  24.348  38.231
2178.19  24.401  38.304
2178.69  24.375  38.231
2179.19  24.348  38.231
2179.69  24.401  38.231
2180.19  24.375  38.158
2180.69  24.375  38.231
2181.19  24.375  38.304
2181.69  24.348  38.158
2182.19  24.375  38.304
2182.69  24.375  38.158
2183.19  24.375  38.231
2183.69  24.375  38.304
2184.19  24.375  38.231
2184.69  24.375  38.158
2185.19  24.375  38.231
2185.69  24.375  38.304
2186.19  24.375  38.231
2186.69  24.375  38.304
2187.19  24.375  38.304
2187.69  24.375  38.231
2188.19  24.375  38.231
2188.69  24.375  38.231
2189.19  24.375  38.231
2189.69  24.375  38.231
2190.19  24.375  38.231
2190.69  24.375  38.304
2191.19  24.348  38.231
2191.69  24.401  38.231
2192.19  24.401  38.231
2192.69  24.375  38.231
2193.19  24.375  38.304
2193.69  24.375  38.231
2194.19  24.348  38.231
2194.69  24.375  38.231
2195.19  24.375  38.304
2195.69  24.375  38.231
2196.19  24.375  38.378
2196.69  24.375  38.231
2197.19  24.375  38.158
2197.70  24.375  38.231
2198.20  24.375  38.231
2198.70  24.375  38.231
2199.20  24.401  38.231
2199.70  24.375  38.231
2200.20  24.375  38.231
2200.70  24.348  38.231
2201.20  24.401  38.231
2201.70  24.401  38.231
2202.20  24.375  38.158
2202.70  24.375  38.231
2203.20  24.348  38.231
2203.70  24.348  38.231
2204.20  24.375  38.231
2204.70  24.375  38.304
2205.20  24.375  38.304
2205.70  24.375  38.304
2206.20  24.375  38.231
2206.70  24.375  38.304
2207.20  24.401  38.231
2207.70  24.375  38.158
2208.20  24.375  38.231
2208.70  24.375  38.231
2209.20  24.375  38.231
2209.70  24.375  38.231
2210.20  24.375  38.231
2210.70  24.375  38.231
2211.20  24.375  38.231
2211.70  24.375  38.158
2212.20  24.375  38.304
2212.70  24.427  38.304
2213.20  24.348  38.304
2213.70  24.375  38.231
2214.20  24.348  38.231
2214.70  24.375  38.231
2215.20  24.375  38.231
2215.70  24.348  38.231
2216.20  24.348  38.231
2216.70  24.401  38.231
2217.20  24.375  38.231
2217.70  24.375  38.231
2218.20  24.401  38.231
2218.70  24.375  38.231
2219.20  24.375  38.304
2219.70  24.401  38.304
2220.20  24.375  38.304
2220.70  24.375  38.158
2221.20  24.401  38.304
2221.70  24.375  38.231
2222.20  24.375  38.231
2222.70  24.375  38.231
2223.20  24.375  38.231
2223.70  24.375  38.231
2224.20  24.375  38.231
2224.70  24.348  38.231
2225.20  24.375  38.304
2225.70  24.375  38.231
2226.20  24.401  38.231
2226.70  24.401  38.231
2227.20  24.375  38.158
2227.70  24.375  38.231
2228.20  24.375  38.304
2228.70  24.375  38.231
2229.20  24.375  38.231
2229.70  24.375  38.304
2230.20  24.375  38.231
2230.70  24.375  38.231
2231.20  24.375  38.304
2231.70  24.375  38.231
2232.20  24.375  38.304
2232.70  24.375  38.231
2233.20  24.375  38.231
2233.70  24.375  38.304
2234.20  24.375  38.231
2234.70  24.375  38.231
2235.20  24.401  38.231
2235.70  24.375  38.231
2236.20  24.401  38.231
2236.70  24.375  38.231
2237.20  24.375  38.378
2237.70  24.375  38.231
2238.20  24.401  38.231
2238.70  24.375  38.231
2239.20  24.375  38.304
2239.70  24.375  38.231
2240.20  24.375  38.304
2240.70  24.401  38.231
2241.20  24.375  38.231
2241.70  24.401  38.231
2242.20  24.401  38.304
2242.70  24.375  38.231
2243.20  24.375  38.304
2243.70  24.375  38.378
2244.20  24.375  38.231
2244.70  24.348  38.304
2245.20  24.348  38.304
2245.70  24.375  38.304
2246.20  24.401  38.304
2246.70  24.401  38.378
2247.20  24.375  38.304
2247.70  24.401  38.231
2248.20  24.375  38.304
2248.70  24.375  38.231
2249.20  24.375  38.304
2249.70  24.375  38.304
2250.20  24.348  38.231
2250.70  24.375  38.231
2251.20  24.375  38.304
2251.70  24.375  38.231
2252.20  24.375  38.304
2252.70  24.375  38.304
2253.20  24.401  38.451
2253.70  24.375  38.231
2254.20  24.375  38.304
2254.70  24.375  38.304
2255.20  24.401  38.304
2255.70  24.375  38.304
2256.20  24.401  38.231
2256.70  24.375  38.304
2257.20  24.348  38.231
2257.70  24.401  38.378
2258.20  24.375  38.231
2258.70  24.375  38.304
2259.20  24.375  38.304
2259.70  24.401  38.378
2260.20  24.348  38.304
2260.70  24.375  38.231
2261.20  24.375  38.304
2261.70  24.401  38.304
2262.20  24.348  38.231
2262.70  24.375  38.304
2263.20  24.401  38.304
2263.70  24.375  38.304
2264.20  24.375  38.304
2264.70  24.375  38.304
2265.20  24.401  38.304
2265.70  24.375  38.304
2266.20  24.375  38.158
2266.70  24.375  38.304
2267.20  24.375  38.304
2267.70  24.375  38.304
2268.20  24.375  38.231
2268.70  24.401  38.304
2269.20  24.401  38.304
2269.70  24.401  38.304
2270.20  24.375  38.304
2270.70  24.375  38.304
2271.20  24.427  38.304
2271.70  24.375  38.231
2272.20  24.375  38.231
2272.70  24.348  38.304
2273.20  24.375  38.304
2273.70  24.401  38.304
2274.20  24.375  38.304
2274.70  24.375  38.304
2275.20  24.375  38.304
2275.70  24.375  38.231
2276.20  24.375  38.304
2276.70  24.348  38.231
2277.20  24.375  38.304
2277.70  24.375  38.304
2278.20  24.375  38.304
2278.70  24.375  38.304
2279.20  24.401  38.304
2279.70  24.375  38.378
2280.20  24.401  38.304
2280.70  24.375  38.304
2281.20  24.375  38.304
2281.70  24.375  38.304
2282.20  24.375  38.304
2282.70  24.375  38.304
2283.20  24.375  38.304
2283.70  24.401  38.304
2284.20  24.375  38.304
2284.70  24.348  38.378
2285.20  24.375  38.304
2285.70  24.401  38.304
2286.20  24.375  38.231
2286.70  24.375  38.231
2287.20  24.375  38.451
2287.70  24.375  38.158
2288.20  24.375  38.231
2288.70  24.375  38.304
2289.20  24.348  38.378
2289.70  24.401  38.304
2290.20  24.375  38.231
2290.70  24.348  38.304
2291.20  24.375  38.304
2291.70  24.375  38.304
2292.20  24.348  38.304
2292.70  24.375  38.304
2293.20  24.375  38.231
2293.70  24.401  38.304
2294.20  24.401  38.378
2294.70  24.348  38.231
2295.20  24.375  38.304
2295.70  24.401  38.304
2296.20  24.375  38.304
2296.70  24.348  38.304
2297.20  24.375  38.304
2297.70  24.401  38.231
2298.20  24.375  38.304
2298.70  24.375  38.304
2299.20  24.375  38.304
2299.70  24.375  38.304
2300.20  24.375  38.304
2300.70  24.375  38.304
2301.20  24.375  38.304
2301.70  24.375  38.304
2302.20  24.375  38.304
2302.70  24.375  38.304
2303.20  24.375  38.304
2303.70  24.375  38.304
2304.20  24.348  38.158
2304.70  24.401  38.304
2305.20  24.375  38.378
2305.70  24.401  38.304
2306.20  24.348  38.304
2306.70  24.375  38.304
2307.20  24.375  38.304
2307.70  24.375  38.304
2308.20  24.375  38.231
2308.70  24.401  38.304
2309.20  24.375  38.378
2309.70  24.375  38.304
2310.20  24.375  38.304
2310.70  24.375  38.304
2311.20  24.375  38.304
2311.70  24.375  38.304
2312.20  24.401  38.304
2312.70  24.375  38.304
2313.20  24.375  38.304
2313.70  24.401  38.304
2314.20  24.375  38.304
2314.70  24.401  38.304
2315.20  24.375  38.378
2315.70  24.427  38.304
2316.20  24.375  38.304
2316.70  24.375  38.304
2317.20  24.427  38.378
2317.70  24.401  38.304
2318.20  24.348  38.231
2318.70  24.375  38.378
2319.20  24.375  38.231
2319.70  24.401  38.304
2320.20  24.401  38.304
2320.70  24.322  38.304
2321.20  24.375  38.304
2321.71  24.401  38.231
2322.21  24.375  38.378
2322.71  24.401  38.378
2323.21  24.375  38.304
2323.71  24.375  38.304
2324.21  24.401  38.231
2324.71  24.375  38.304
2325.21  24.375  38.304
2325.71  24.401  38.378
2326.21  24.375  38.378
2326.71  24.375  38.304
2327.21  24.427  38.378
2327.71  24.401  38.378
2328.21  24.401  38.304
2328.71  24.401  38.304
2329.21  24.401  38.304
2329.71  24.401  38.378
2330.21  24.375  38.304
2330.71  24.401  38.378
2331.21  24.401  38.304
2331.71  24.375  38.304
2332.21  24.375  38.231
2332.71  24.375  38.304
2333.21  24.401  38.304
2333.71  24.401  38.304
2334.21  24.375  38.304
2334.71  24.348  38.304
2335.21  24.401  38.231
2335.71  24.401  38.304
2336.21  24.401  38.231
2336.71  24.375  38.304
2337.21  24.375  38.378
2337.71  24.401  38.231
2338.21  24.375  38.378
2338.71  24.375  38.451
2339.21  24.375  38.304
2339.71  24.375  38.304
2340.21  24.427  38.304
2340.71  24.401  38.378
2341.21  24.401  38.304
2341.71  24.375  38.304
2342.21  24.401  38.304
2342.71  24.375  38.378
2343.21  24.375  38.378
2343.71  24.401  38.304
2344.21  24.375  38.304
2344.71  24.401  38.304
2345.21  24.375  38.304
2345.71  24.427  38.304
2346.21  24.401  38.378
2346.71  24.401  38.378
2347.21  24.401  38.304
2347.71  24.427  38.304
2348.21  24.401  38.304
2348.71  24.375  38.378
2349.21  24.375  38.304
2349.71  24.375  38.304
2350.21  24.375  38.304
2350.71  24.375  38.231
2351.21  24.401  38.231
2351.71  24.375  38.231
2352.21  24.401  38.304
2352.71  24.401  38.304
2353.21  24.375  38.304
2353.71  24.375  38.378
2354.21  24.375  38.378
2354.71  24.375  38.451
2355.21  24.375  38.304
2355.71  24.348  38.304
2356.21  24.375  38.304
2356.71  24.375  38.304
2357.21  24.401  38.304
2357.71  24.401  38.304
2358.21  24.401  38.304
2358.71  24.348  38.304
2359.21  24.375  38.304
2359.71  24.375  38.304
2360.21  24.401  38.378
2360.71  24.401  38.304
2361.21  24.427  38.304
2361.71  24.375  38.304
2362.21  24.375  38.378
2362.71  24.401  38.378
2363.21  24.401  38.304
2363.71  24.401  38.378
2364.21  24.322  38.304
2364.71  24.401  38.304
2365.21  24.401  38.451
2365.71  24.401  38.304
2366.21  24.375  38.304
2366.71  24.401  38.378
2367.21  24.375  38.378
2367.71  24.401  38.304
2368.21  24.401  38.304
2368.71  24.401  38.378
2369.21  24.401  38.378
2369.71  24.375  38.304
2370.21  24.401  38.304
2370.71  24.427  38.304
2371.21  24.401  38.304
2371.71  24.453  38.378
2372.21  24.401  38.378
2372.71  24.401  38.304
2373.21  24.401  38.378
2373.71  24.375  38.378
2374.21  24.401  38.304
2374.71  24.375  38.304
2375.21  24.375  38.378
2375.71  24.375  38.304
2376.21  24.401  38.304
2376.71  24.401  38.304
2377.21  24.375  38.304
2377.71  24.401  38.451
2378.21  24.375  38.304
2378.71  24.427  38.378
2379.21  24.401  38.304
2379.71  24.401  38.304
2380.21  24.375  38.304
2380.71  24.401  38.378
2381.21  24.375  38.304
2381.71  24.453  38.378
2382.21  24.401  38.304
2382.71  24.401  38.304
2383.21  24.401  38.304
2383.71  24.401  38.378
2384.21  24.401  38.304
2384.71  24.401  38.304
2385.21  24.427  38.304
2385.71  24.401  38.304
2386.21  24.375  38.304
2386.71  24.348  38.304
2387.21  24.427  38.304
2387.71  24.375  38.304
2388.21  24.401  38.378
2388.71  24.401  38.378
2389.21  24.401  38.304
2389.71  24.401  38.304
2390.21  24.375  38.304
2390.71  24.401  38.304
2391.21  24.401  38.304
2391.71  24.375  38.378
2392.21  24.401  38.304
2392.71  24.401  38.451
2393.21  24.427  38.304
2393.71  24.401  38.304
2394.21  24.401  38.378
2394.71  24.375  38.231
2395.21  24.427  38.304
2395.71  24.401  38.304
2396.21  24.401  38.378
2396.71  24.401  38.304
2397.21  24.401  38.304
2397.71  24.427  38.378
2398.21  24.375  38.304
2398.71  24.401  38.304
2399.21  24.427  38.378
2399.71  24.401  38.304
2400.21  24.401  38.304
2400.71  24.375  38.378
2401.21  24.401  38.451
2401.71  24.401  38.378
2402.21  24.401  38.378
2402.71  24.401  38.378
2403.21  24.401  38.378
2403.71  24.401  38.378
2404.21  24.375  38.378
2404.71  24.401  38.451
2405.21  24.401  38.378
2405.71  24.401  38.378
2406.21  24.375  38.304
2406.71  24.401  38.378
2407.21  24.401  38.304
2407.71  24.427  38.378
2408.21  24.375  38.451
2408.71  24.401  38.378
2409.21  24.401  38.378
2409.71  24.453  38.451
2410.21  24.427  38.304
2410.71  24.401  38.378
2411.21  24.375  38.304
2411.71  24.401  38.304
2412.21  24.427  38.378
2412.71  24.401  38.231
2413.21  24.401  38.378
2413.71  24.401  38.304
2414.21  24.401  38.378
2414.71  24.401  38.378
2415.21  24.401  38.451
2415.71  24.375  38.304
2416.21  24.427  38.304
2416.71  24.401  38.378
2417.21  24.401  38.304
2417.71  24.401  38.378
2418.21  24.401  38.378
2418.71  24.375  38.304
2419.21  24.401  38.304
2419.71  24.401  38.378
2420.21  24.375  38.231
2420.71  24.427  38.304
2421.21  24.401  38.378
2421.71  24.401  38.378
2422.21  24.401  38.304
2422.71  24.401  38.304
2423.21  24.375  38.378
2423.72  24.401  38.304
2424.22  24.401  38.378
2424.72  24.375  38.378
2425.22  24.401  38.378
2425.72  24.375  38.378
2426.22  24.401  38.378
2426.72  24.375  38.378
2427.22  24.375  38.378
2427.72  24.401  38.378
2428.22  24.401  38.378
2428.72  24.401  38.304
2429.22  24.401  38.378
2429.72  24.401  38.378
2430.22  24.427  38.451
2430.72  24.375  38.378
2431.22  24.375  38.378
2431.72  24.375  38.304
2432.22  24.375  38.378
2432.72  24.348  38.378
2433.22  24.401  38.304
2433.72  24.427  38.304
2434.22  24.401  38.378
2434.72  24.375  38.304
2435.22  24.401  38.451
2435.72  24.401  38.304
2436.22  24.427  38.378
2436.72  24.401  38.378
2437.22  24.401  38.378
2437.72  24.401  38.378
2438.22  24.427  38.378
2438.72  24.401  38.304
2439.22  24.401  38.378
2439.72  24.401  38.378
2440.22  24.401  38.378
2440.72  24.401  38.378
2441.22  24.401  38.378
2441.72  24.401  38.304
2442.22  24.401  38.378
2442.72  24.401  38.378
2443.22  24.401  38.451
2443.72  24.375  38.378
2444.22  24.401  38.378
2444.72  24.375  38.304
2445.22  24.375  38.378
2445.72  24.401  38.378
2446.22  24.401  38.378
2446.72  24.427  38.378
2447.22  24.401  38.378
2447.72  24.375  38.378
2448.22  24.401  38.378
2448.72  24.401  38.378
2449.22  24.401  38.378
2449.72  24.401  38.378
2450.22  24.401  38.451
2450.72  24.375  38.378
2451.22  24.427  38.378
2451.72  24.401  38.378
2452.22  24.401  38.378
2452.72  24.401  38.378
2453.22  24.427  38.378
2453.72  24.427  38.451
2454.22  24.401  38.378
2454.72  24.401  38.304
2455.22  24.401  38.378
2455.72  24.401  38.378
2456.22  24.401  38.378
2456.72  24.401  38.378
2457.22  24.401  38.378
2457.72  24.401  38.378
2458.22  24.401  38.378
2458.72  24.401  38.451
2459.22  24.375  38.378
2459.72  24.427  38.378
2460.22  24.401  38.378
2460.72  24.401  38.378
2461.22  24.427  38.378
2461.72  24.348  38.524
2462.22  24.401  38.451
2462.72  24.375  38.378
2463.22  24.401  38.304
2463.72  24.401  38.451
2464.22  24.401  38.451
2464.72  24.401  38.451
2465.22  24.401  38.378
2465.72  24.401  38.378
2466.22  24.348  38.378
2466.72  24.401  38.378
2467.22  24.401  38.378
2467.72  24.401  38.378
2468.22  24.401  38.378
2468.72  24.427  38.378
2469.22  24.401  38.378
2469.72  24.427  38.378
2470.22  24.401  38.378
2470.72  24.401  38.451
2471.22  24.401  38.451
2471.72  24.401  38.378
2472.22  24.401  38.378
2472.72  24.401  38.378
2473.22  24.401  38.451
2473.72  24.401  38.378
2474.22  24.401  38.451
2474.72  24.401  38.451
2475.22  24.401  38.378
2475.72  24.401  38.378
2476.22  24.401  38.451
2476.72  24.401  38.378
2477.22  24.401  38.378
2477.72  24.401  38.378
2478.22  24.401  38.378
2478.72  24.401  38.524
2479.22  24.401  38.524
2479.72  24.375  38.378
2480.22  24.401  38.378
2480.72  24.401  38.451
2481.22  24.401  38.451
2481.72  24.375  38.378
2482.22  24.401  38.378
2482.72  24.401  38.451
2483.22  24.427  38.378
2483.72  24.401  38.451
2484.22  24.401  38.378
2484.72  24.401  38.524
2485.22  24.427  38.378
2485.72  24.375  38.451
2486.22  24.348  38.378
2486.72  24.375  38.304
2487.22  24.427  38.378
2487.72  24.401  38.378
2488.22  24.401  38.451
2488.72  24.401  38.378
2489.22  24.401  38.378
2489.72  24.401  38.598
2490.22  24.401  38.378
2490.72  24.427  38.378
2491.22  24.401  38.451
2491.72  24.401  38.304
2492.22  24.401  38.378
2492.72  24.401  38.451
2493.22  24.401  38.378
2493.72  24.401  38.451
2494.22  24.401  38.378
2494.72  24.375  38.451
2495.22  24.427  38.378
2495.72  24.401  38.378
2496.22  24.427  38.378
2496.72  24.375  38.378
2497.22  24.401  38.378
2497.72  24.427  38.378
2498.22  24.427  38.378
2498.72  24.401  38.378
2499.22  24.427  38.378
2499.72  24.401  38.378
2500.22  24.375  38.378
2500.72  24.401  38.378
2501.22  24.401  38.378
2501.72  24.401  38.451
