   2.00  24.061  23.489
   2.50  24.061  23.458
   3.00  24.061  23.489
   3.50  24.061  23.489
   4.00  24.009  23.458
   4.50  24.061  23.458
   5.00  24.087  23.489
   5.50  24.061  23.458
   6.00  24.035  23.520
   6.50  24.009  23.489
   7.00  24.035  23.489
   7.50  24.061  23.520
   8.00  24.035  23.520
   8.50  24.061  23.489
   9.00  24.061  23.458
   9.50  24.087  23.520
  10.00  24.009  23.489
  10.50  24.061  23.489
  11.00  24.061  23.458
  11.50  24.035  23.489
  12.00  24.035  23.458
  12.50  24.035  23.489
  13.00  24.087  23.489
  13.50  24.035  23.458
  14.00  24.061  23.458
  14.50  24.061  23.489
  15.00  24.061  23.458
  15.50  24.061  23.489
  16.00  24.113  23.489
  16.50  24.113  23.489
  17.00  24.140  23.489
  17.50  24.087  23.489
  18.00  24.140  23.489
  18.50  24.140  23.520
  19.00  24.140  23.458
  19.50  24.140  23.489
  20.00  24.166  23.489
  20.50  24.166  23.489
  21.00  24.192  23.489
  21.50  24.192  23.489
  22.00  24.218  23.489
  22.50  24.218  23.489
  23.00  24.192  23.489
  23.50  24.218  23.489
  24.00  24.218  23.520
  24.50  24.244  23.489
  25.00  24.166  23.489
  25.50  24.270  23.489
  26.00  24.270  23.489
  26.50  24.244  23.489
  27.00  24.270  23.489
  27.50  24.270  23.520
  28.00  24.270  23.489
  28.50  24.270  23.489
  29.00  24.270  23.489
  29.50  24.244  23.489
  30.00  24.270  23.489
  30.50  24.322  23.427
  31.00  24.296  23.489
  31.50  24.296  23.458
  32.00  24.322  23.489
  32.50  24.322  23.520
  33.00  24.375  23.489
  33.50  24.348  23.520
  34.00  24.348  23.489
  34.50  24.401  23.489
  35.00  24.375  23.520
  35.50  24.375  23.520
  36.00  24.375  23.520
  36.50  24.375  23.489
  37.00  24.375  23.520
  37.50  24.401  23.489
  38.00  24.401  23.458
  38.50  24.427  23.489
  39.00  24.427  23.489
  39.50  24.453  23.489
  40.00  24.427  23.520
  40.50  24.453  23.520
  41.00  24.453  23.520
  41.50  24.427  23.489
  42.00  24.453  23.489
  42.50  24.453  23.489
  43.00  24.479  23.520
  43.50  24.453  23.458
  44.00  24.505  23.489
  44.50  24.479  23.520
  45.00  24.479  23.489
  45.50  24.479  23.489
  46.00  24.505  23.489
  46.50  24.479  23.489
  47.00  24.583  23.520
  47.51  24.505  23.489
  48.01  24.505  23.489
  48.51  24.505  23.520
  49.01  24.583  23.520
  49.51  24.531  23.489
  50.01  24.531  23.489
  50.51  24.531  23.489
  51.01  24.557  23.520
  51.51  24.557  23.520
  52.01  24.557  23.550
  52.51  24.557  23.458
  53.01  24.583  23.489
  53.51  24.610  23.520
  54.01  24.557  23.489
  54.51  24.583  23.520
  55.01  24.610  23.520
  55.51  24.610  23.489
  56.01  24.636  23.520
  56.51  24.610  23.489
  57.01  24.583  23.489
  57.51  24.610  23.520
  58.01  24.636  23.520
  58.51  24.610  23.520
  59.01  24.636  23.520
  59.51  24.636  23.550
  60.01  24.662  23.520
  60.51  24.636  23.520
  61.01  24.662  23.520
  61.51  24.662  23.520
  62.01  24.662  23.520
  62.51  24.636  23.550
  63.01  24.636  23.489
  63.51  24.662  23.489
  64.01  24.662  23.458
  64.51  24.688  23.520
  65.01  24.688  23.489
  65.51  24.688  23.520
  66.01  24.688  23.489
  66.51  24.714  23.489
  67.01  24.740  23.550
  67.51  24.714  23.520
  68.01  24.714  23.489
  68.51  24.740  23.520
  69.01  24.714  23.520
  69.51  24.740  23.520
  70.01  24.740  23.520
  70.51  24.714  23.520
  71.01  24.740  23.489
  71.51  24.766  23.520
  72.01  24.740  23.520
  72.51  24.766  23.489
  73.01  24.766  23.489
  73.51  24.792  23.520
  74.01  24.740  23.489
  74.51  24.766  23.520
  75.01  24.766  23.550
  75.51  24.819  23.520
  76.01  24.792  23.520
  76.51  24.792  23.550
  77.01  24.819  23.550
  77.51  24.819  23.520
  78.01  24.792  23.550
  78.51  24.792  23.550
  79.01  24.845  23.550
  79.51  24.819  23.550
  80.01  24.819  23.581
  80.51  24.845  23.520
  81.01  24.819  23.550
  81.51  24.819  23.550
  82.01  24.871  23.520
  82.51  24.792  23.489
  83.01  24.845  23.550
  83.51  24.845  23.550
  84.01  24.871  23.520
  84.51  24.871  23.520
  85.01  24.871  23.520
  85.51  24.871  23.520
  86.01  24.871  23.520
  86.51  24.897  23.520
  87.01  24.949  23.520
  87.51  24.897  23.520
  88.01  24.897  23.520
  88.51  24.897  23.581
  89.01  24.897  23.520
  89.51  24.897  23.520
  90.01  24.923  23.489
  90.51  24.897  23.520
  91.01  24.923  23.550
  91.51  24.923  23.489
  92.01  24.949  23.550
  92.51  24.923  23.520
  93.01  24.949  23.550
  93.51  24.949  23.520
  94.01  24.975  23.550
  94.51  24.949  23.581
  95.01  24.949  23.550
  95.51  24.949  23.550
  96.01  24.975  23.550
  96.51  24.975  23.550
  97.01  24.975  23.520
  97.51  24.949  23.550
  98.01  25.114  23.550
  98.51  24.975  23.520
  99.01  24.975  23.520
  99.51  25.005  23.550
 100.01  25.114  23.520
 100.51  24.975  23.550
 101.01  25.005  23.550
 101.51  25.005  23.520
 102.01  25.005  23.550
 102.51  25.114  23.520
 103.01  25.005  23.581
 103.51  25.005  23.550
 104.01  25.114  23.550
 104.51  25.114  23.520
 105.01  25.222  23.520
 105.51  25.114  23.520
 106.01  25.114  23.520
 106.51  25.114  23.550
 107.01  25.330  23.520
 107.51  25.330  23.489
 108.01  25.438  23.520
 108.51  25.330  23.520
 109.01  25.222  23.520
 109.51  25.222  23.550
 110.01  25.330  23.520
 110.51  25.330  23.520
 111.01  25.330  23.520
 111.51  25.330  23.520
 112.01  25.114  23.550
 112.51  25.330  23.550
 113.01  25.330  23.520
 113.51  25.330  23.520
 114.01  25.330  23.489
 114.51  25.438  23.550
 115.01  25.438  23.550
 115.51  25.547  23.520
 116.01  25.547  23.489
 116.51  25.438  23.581
 117.01  25.547  23.550
 117.51  25.655  23.520
 118.01  25.438  23.550
 118.51  25.547  23.550
 119.01  25.547  23.550
 119.51  25.655  23.550
 120.01  25.547  23.550
 120.51  25.547  23.550
 121.01  25.655  23.550
 121.51  25.547  23.489
 122.01  25.763  23.550
 122.51  25.655  23.550
 123.01  25.763  23.550
 123.51  25.655  23.520
 124.01  25.655  23.550
 124.51  25.655  23.550
 125.01  25.763  23.550
 125.51  25.655  23.550
 126.01  25.763  23.550
 126.51  25.763  23.520
 127.01  25.871  23.550
 127.51  25.763  23.520
 128.01  25.980  23.550
 128.51  25.763  23.520
 129.01  25.763  23.550
 129.51  25.763  23.489
 130.01  26.088  23.581
 130.51  25.980  23.612
 131.01  26.088  23.550
 131.51  25.871  23.550
 132.01  25.980  23.550
 132.51  25.980  23.550
 133.01  25.871  23.581
 133.51  26.088  23.520
 134.01  25.980  23.550
 134.51  26.088  23.550
 135.01  26.088  23.581
 135.51  26.088  23.489
 136.01  26.088  23.550
 136.51  26.088  23.520
 137.01  26.088  23.520
 137.51  26.088  23.550
 138.01  26.196  23.550
 138.51  25.980  23.550
 139.01  26.196  23.550
 139.51  26.196  23.550
 140.01  26.304  23.550
 140.51  26.304  23.550
 141.01  26.196  23.550
 141.51  26.304  23.520
 142.01  26.521  23.520
 142.51  26.196  23.550
 143.01  26.196  23.550
 143.51  26.196  23.520
 144.01  26.196  23.550
 144.51  26.304  23.550
 145.01  26.304  23.550
 145.51  26.413  23.550
 146.01  26.196  23.550
 146.51  26.304  23.581
 147.01  26.413  23.520
 147.51  26.304  23.581
 148.01  26.304  23.520
 148.51  26.413  23.550
 149.01  26.413  23.550
 149.51  26.413  23.550
 150.01  26.413  23.550
 150.51  26.413  23.581
 151.01  26.413  23.550
 151.51  26.521  23.581
 152.01  26.521  23.581
 152.51  26.521  23.550
 153.01  26.521  23.550
 153.51  26.521  23.550
 154.01  26.413  23.550
 154.51  26.629  23.520
 155.01  26.629  23.550
 155.51  26.629  23.550
 156.01  26.521  23.520
 156.51  26.521  23.581
 157.01  26.737  23.581
 157.51  26.629  23.520
 158.01  26.629  23.581
 158.51  26.737  23.550
 159.01  26.737  23.489
 159.51  26.629  23.581
 160.01  26.737  23.550
 160.51  26.521  23.550
 161.01  26.737  23.550
 161.51  26.629  23.550
 162.01  26.737  23.550
 162.51  26.629  23.550
 163.01  26.737  23.550
 163.51  26.737  23.550
 164.01  26.846  23.550
 164.51  26.737  23.520
 165.01  26.846  23.550
 165.51  26.954  23.550
 166.01  26.737  23.550
 166.51  26.846  23.550
 167.01  26.846  23.581
 167.51  26.954  23.550
 168.01  26.954  23.550
 168.51  26.954  23.550
 169.01  26.954  23.550
 169.51  26.846  23.612
 170.01  26.846  23.550
 170.51  27.062  23.550
 171.01  26.846  23.550
 171.52  26.954  23.550
 172.02  26.954  23.550
 172.52  26.954  23.550
 173.02  27.062  23.581
 173.52  26.846  23.581
 174.02  26.954  23.612
 174.52  26.954  23.581
 175.02  27.062  23.550
 175.52  27.062  23.581
 176.02  26.954  23.550
 176.52  27.062  23.581
 177.02  26.954  23.520
 177.52  27.170  23.550
 178.02  27.170  23.550
 178.52  27.170  23.581
 179.02  27.062  23.550
 179.52  27.170  23.550
 180.02  27.062  23.550
 180.52  27.170  23.550
 181.02  27.062  23.520
 181.52  27.062  23.520
 182.02  27.170  23.581
 182.52  27.279  23.581
 183.02  27.279  23.550
 183.52  27.279  23.550
 184.02  27.170  23.550
 184.52  27.279  23.581
 185.02  26.954  23.550
 185.52  27.279  23.550
 186.02  27.387  23.581
 186.52  27.387  23.550
 187.02  27.279  23.550
 187.52  27.387  23.550
 188.02  27.279  23.550
 188.52  27.170  23.581
 189.02  27.387  23.550
 189.52  27.495  23.550
 190.02  27.387  23.550
 190.52  27.387  23.581
 191.02  27.279  23.520
 191.52  27.387  23.581
 192.02  27.387  23.520
 192.52  27.603  23.581
 193.02  27.387  23.581
 193.52  27.495  23.550
 194.02  27.495  23.550
 194.52  27.387  23.550
 195.02  27.495  23.581
 195.52  27.495  23.550
 196.02  27.603  23.550
 196.52  27.603  23.520
 197.02  27.603  23.550
 197.52  27.495  23.550
 198.02  27.603  23.581
 198.52  27.603  23.550
 199.02  27.495  23.581
 199.52  27.603  23.550
 200.02  27.603  23.520
 200.52  27.603  23.550
 201.02  27.603  23.550
 201.52  27.603  23.581
 202.02  27.820  23.581
 202.52  27.712  23.581
 203.02  27.603  23.520
 203.52  27.712  23.581
 204.02  27.712  23.581
 204.52  27.712  23.612
 205.02  27.712  23.581
 205.52  27.712  23.550
 206.02  27.712  23.520
 206.52  28.036  23.550
 207.02  27.712  23.550
 207.52  27.820  23.550
 208.02  27.820  23.520
 208.52  27.928  23.550
 209.02  27.820  23.550
 209.52  27.928  23.550
 210.02  27.928  23.581
 210.52  27.820  23.550
 211.02  27.928  23.581
 211.52  27.820  23.550
 212.02  27.928  23.581
 212.52  27.928  23.581
 213.02  27.928  23.550
 213.52  27.928  23.550
 214.02  27.928  23.612
 214.52  28.145  23.581
 215.02  28.036  23.581
 215.52  28.036  23.581
 216.02  28.036  23.581
 216.52  28.036  23.520
 217.02  28.036  23.581
 217.52  28.036  23.581
 218.02  28.036  23.581
 218.52  28.036  23.520
 219.02  28.036  23.550
 219.52  28.036  23.550
 220.02  28.145  23.581
 220.52  28.145  23.550
 221.02  28.361  23.581
 221.52  28.145  23.581
 222.02  28.145  23.612
 222.52  28.145  23.581
 223.02  28.145  23.550
 223.52  28.036  23.581
 224.02  28.145  23.550
 224.52  28.469  23.581
 225.02  28.253  23.581
 225.52  28.253  23.581
 226.02  28.253  23.612
 226.52  28.361  23.643
 227.02  28.253  23.581
 227.52  28.253  23.581
 228.02  28.361  23.643
 228.52  28.036  23.612
 229.02  28.361  23.612
 229.52  28.253  23.581
 230.02  28.361  23.612
 230.52  28.361  23.612
 231.02  28.469  23.581
 231.52  28.469  23.550
 232.02  28.361  23.612
 232.52  28.361  23.581
 233.02  28.253  23.550
 233.52  28.361  23.581
 234.02  28.469  23.612
 234.52  28.361  23.550
 235.02  28.469  23.581
 235.52  28.469  23.550
 236.02  28.469  23.581
 236.52  28.361  23.581
 237.02  28.469  23.581
 237.52  28.578  23.550
 238.02  28.469  23.550
 238.52  28.361  23.581
 239.02  28.469  23.581
 239.52  28.361  23.581
 240.02  28.361  23.581
 240.52  28.253  23.581
 241.02  28.578  23.612
 241.52  28.469  23.581
 242.02  28.469  23.581
 242.52  28.686  23.612
 243.02  28.578  23.550
 243.52  28.578  23.581
 244.02  28.578  23.550
 244.52  28.578  23.674
 245.02  28.686  23.612
 245.52  28.578  23.550
 246.02  28.686  23.550
 246.52  28.469  23.612
 247.02  28.578  23.581
 247.52  28.686  23.612
 248.02  28.686  23.581
 248.52  28.794  23.581
 249.02  28.794  23.889
 249.52  28.686  23.581
 250.02  28.794  23.550
 250.52  28.794  23.581
 251.02  28.794  23.581
 251.52  28.794  23.581
 252.02  28.794  23.581
 252.52  28.902  23.581
 253.02  28.794  23.581
 253.52  28.902  23.612
 254.02  28.902  23.581
 254.52  28.902  23.581
 255.02  28.794  23.550
 255.52  28.794  23.550
 256.02  28.902  23.581
 256.52  28.902  23.612
 257.02  28.794  23.612
 257.52  28.902  23.581
 258.02  28.902  23.581
 258.52  29.011  23.581
 259.02  29.011  23.612
 259.52  29.119  23.550
 260.02  28.902  23.612
 260.52  29.011  23.581
 261.02  28.902  23.581
 261.52  28.902  23.581
 262.02  28.902  23.643
 262.52  29.011  23.581
 263.02  29.011  23.581
 263.52  29.011  23.643
 264.02  29.011  23.612
 264.52  28.902  23.581
 265.02  29.119  23.581
 265.52  29.011  23.581
 266.02  29.119  23.581
 266.52  29.011  23.581
 267.02  29.011  23.612
 267.52  29.227  23.581
 268.02  29.119  23.581
 268.52  29.227  23.550
 269.02  29.119  23.581
 269.52  29.119  23.581
 270.02  29.227  23.612
 270.52  29.119  23.581
 271.02  29.119  23.581
 271.52  29.119  23.581
 272.02  29.119  23.581
 272.52  29.119  23.612
 273.02  29.335  23.581
 273.52  29.227  23.643
 274.02  29.227  23.581
 274.52  29.227  23.581
 275.02  29.335  23.612
 275.52  29.227  23.612
 276.02  29.335  23.612
 276.52  29.335  23.612
 277.02  29.227  23.520
 277.52  29.227  23.581
 278.02  29.444  23.581
 278.52  29.335  23.581
 279.02  29.444  23.581
 279.52  29.227  23.612
 280.02  29.335  23.581
 280.52  29.335  23.612
 281.02  29.335  23.612
 281.52  29.335  23.581
 282.02  29.444  23.581
 282.52  29.444  23.581
 283.02  29.335  23.612
 283.52  29.444  23.581
 284.02  29.444  23.581
 284.52  29.335  23.581
 285.03  29.444  23.581
 285.53  29.660  23.612
 286.03  29.444  23.581
 286.53  29.335  23.612
 287.03  29.552  23.581
 287.53  29.444  23.581
 288.03  29.444  23.581
 288.53  29.444  23.612
 289.03  29.552  23.581
 289.53  29.552  23.643
 290.03  29.552  23.612
 290.53  29.552  23.612
 291.03  29.552  23.612
 291.53  29.660  23.581
 292.03  29.552  23.612
 292.53  29.660  23.581
 293.03  29.552  23.581
 293.53  29.660  23.612
 294.03  29.660  23.581
 294.53  29.768  23.612
 295.03  29.660  23.612
 295.53  29.768  23.612
 296.03  29.877  23.581
 296.53  29.660  23.581
 297.03  29.552  23.612
 297.53  29.768  23.612
 298.03  29.768  23.581
 298.53  29.877  23.612
 299.03  29.768  23.581
 299.53  29.444  23.612
 300.03  29.768  23.581
 300.53  29.768  23.612
 301.03  29.660  23.612
 301.53  29.768  23.612
 302.03  29.768  23.581
 302.53  29.877  23.550
 303.03  29.768  23.581
 303.53  29.768  23.612
 304.03  29.660  23.612
 304.53  29.768  23.581
 305.03  29.877  23.581
 305.53  29.877  23.581
 306.03  29.660  23.581
 306.53  29.877  23.643
 307.03  29.877  23.581
 307.53  29.877  23.612
 308.03  29.768  23.612
 308.53  29.877  23.643
 309.03  29.877  23.612
 309.53  29.877  23.612
 310.03  29.985  23.612
 310.53  29.985  23.612
 311.03  29.985  23.612
 311.53  29.877  23.581
 312.03  29.985  23.581
 312.53  29.985  23.612
 313.03  29.985  23.612
 313.53  29.877  23.612
 314.03  29.877  23.581
 314.53  29.985  23.581
 315.03  30.217  23.612
 315.53  30.101  23.612
 316.03  29.985  23.612
 316.53  29.985  23.581
 317.03  29.877  23.612
 317.53  30.217  23.581
 318.03  30.217  23.581
 318.53  30.101  23.581
 319.03  30.101  23.612
 319.53  30.217  23.612
 320.03  30.101  23.612
 320.53  30.101  23.581
 321.03  30.217  23.581
 321.53  29.985  23.643
 322.03  30.217  23.612
 322.53  29.985  23.612
 323.03  30.217  23.550
 323.53  30.217  23.581
 324.03  30.101  23.581
 324.53  30.101  23.612
 325.03  30.217  23.550
 325.53  30.217  23.612
 326.03  30.217  23.612
 326.53  30.217  23.612
 327.03  30.217  23.612
 327.53  30.217  23.581
 328.03  30.334  23.581
 328.53  30.217  23.612
 329.03  30.217  23.581
 329.53  30.217  23.581
 330.03  30.334  23.612
 330.53  30.334  23.612
 331.03  30.217  23.612
 331.53  30.334  23.612
 332.03  30.217  23.550
 332.53  30.334  23.612
 333.03  30.217  23.612
 333.53  30.568  23.612
 334.03  30.334  23.612
 334.53  30.217  23.612
 335.03  30.334  23.612
 335.53  30.451  23.612
 336.03  30.451  23.612
 336.53  30.334  23.643
 337.03  30.568  23.581
 337.53  30.451  23.581
 338.03  30.334  23.612
 338.53  30.451  23.581
 339.03  30.334  23.612
 339.53  30.451  23.581
 340.03  30.451  23.612
 340.53  30.568  23.612
 341.03  30.451  23.612
 341.53  30.568  23.612
 342.03  30.451  23.612
 342.53  30.568  23.612
 343.03  30.568  23.612
 343.53  30.568  23.643
 344.03  30.568  23.581
 344.53  30.568  23.612
 345.03  30.451  23.612
 345.53  30.568  23.581
 346.03  30.568  23.643
 346.53  30.568  23.581
 347.03  30.685  23.612
 347.53  30.568  23.581
 348.03  30.685  23.581
 348.53  30.685  23.581
 349.03  30.568  23.612
 349.53  30.568  23.612
 350.03  30.685  23.612
 350.53  30.568  23.612
 351.03  30.568  23.612
 351.53  30.685  23.612
 352.03  30.685  23.612
 352.53  30.685  23.612
 353.03  30.685  23.612
 353.53  30.685  23.581
 354.03  30.685  23.612
 354.53  30.685  23.612
 355.03  30.685  23.581
 355.53  30.802  23.612
 356.03  30.802  23.581
 356.53  30.802  23.612
 357.03  30.802  23.612
 357.53  30.685  23.581
 358.03  30.802  23.643
 358.53  30.802  23.581
 359.03  30.919  23.612
 359.53  30.919  23.612
 360.03  30.919  23.643
 360.53  30.802  23.612
 361.03  30.919  23.612
 361.53  30.802  23.612
 362.03  30.685  23.612
 362.53  30.919  23.612
 363.03  30.802  23.581
 363.53  30.919  23.612
 364.03  31.036  23.612
 364.53  30.919  23.612
 365.03  31.036  23.612
 365.53  30.919  23.581
 366.03  30.802  23.612
 366.53  31.036  23.643
 367.03  31.036  23.643
 367.53  30.802  23.612
 368.03  31.036  23.612
 368.53  30.919  23.612
 369.03  31.036  23.643
 369.53  31.036  23.612
 370.03  31.036  23.643
 370.53  31.152  23.612
 371.03  31.152  23.612
 371.53  30.919  23.705
 372.03  31.269  23.643
 372.53  31.036  23.581
 373.03  31.152  23.612
 373.53  31.152  23.612
 374.03  31.152  23.612
 374.53  31.152  23.643
 375.03  31.152  23.643
 375.53  31.152  23.581
 376.03  31.269  23.581
 376.53  31.152  23.612
 377.03  31.269  23.643
 377.53  31.269  23.581
 378.03  31.269  23.550
 378.53  31.269  23.581
 379.03  31.386  23.674
 379.53  31.269  23.581
 380.03  31.386  23.612
 380.53  31.269  23.612
 381.03  31.503  23.643
 381.53  31.386  23.643
 382.03  31.386  23.612
 382.53  31.386  23.643
 383.03  31.386  23.643
 383.53  31.386  23.643
 384.03  31.386  23.581
 384.53  31.386  23.612
 385.03  31.386  23.643
 385.53  31.503  23.643
 386.03  31.503  23.612
 386.53  31.386  23.643
 387.04  31.503  23.643
 387.54  31.386  23.612
 388.04  31.386  23.612
 388.54  31.503  23.643
 389.04  31.503  23.643
 389.54  31.503  23.643
 390.04  31.386  23.581
 390.54  31.620  23.643
 391.04  31.503  23.612
 391.54  31.620  23.643
 392.04  31.503  23.643
 392.54  31.620  23.674
 393.04  31.620  23.643
 393.54  31.620  23.643
 394.04  31.620  23.643
 394.54  31.620  23.643
 395.04  31.503  23.612
 395.54  31.620  23.643
 396.04  31.620  23.643
 396.54  31.503  23.643
 397.04  31.620  23.581
 397.54  31.503  23.674
 398.04  31.620  23.674
 398.54  31.620  23.612
 399.04  31.737  23.643
 399.54  31.503  23.643
 400.04  31.737  23.612
 400.54  31.620  23.612
 401.04  31.737  23.612
 401.54  31.737  23.643
 402.04  31.737  23.643
 402.54  31.737  23.612
 403.04  31.737  23.643
 403.54  31.737  23.674
 404.04  31.737  23.612
 404.54  31.737  23.643
 405.04  31.737  23.612
 405.54  31.620  23.581
 406.04  31.854  23.612
 406.54  31.854  23.612
 407.04  31.854  23.643
 407.54  31.620  23.643
 408.04  31.854  23.581
 408.54  31.737  23.643
 409.04  31.854  23.643
 409.54  31.854  23.643
 410.04  31.854  23.612
 410.54  31.737  23.612
 411.04  31.737  23.643
 411.54  31.854  23.612
 412.04  31.854  23.612
 412.54  31.971  23.643
 413.04  31.854  23.643
 413.54  31.854  23.612
 414.04  31.854  23.612
 414.54  31.737  23.612
 415.04  31.971  23.643
 415.54  31.971  23.612
 416.04  31.854  23.612
 416.54  31.854  23.643
 417.04  31.854  23.674
 417.54  31.971  23.612
 418.04  31.971  23.643
 418.54  32.087  23.643
 419.04  31.971  23.612
 419.54  31.971  23.643
 420.04  32.087  23.643
 420.54  31.971  23.643
 421.04  32.087  23.612
 421.54  32.087  23.612
 422.04  32.204  23.612
 422.54  31.971  23.643
 423.04  31.971  23.643
 423.54  31.854  23.612
 424.04  32.204  23.643
 424.54  32.087  23.643
 425.04  32.087  23.643
 425.54  32.087  23.643
 426.04  32.087  23.643
 426.54  32.087  23.674
 427.04  32.087  23.612
 427.54  32.087  23.612
 428.04  32.204  23.643
 428.54  32.087  23.674
 429.04  32.087  23.643
 429.54  32.204  23.643
 430.04  32.087  23.643
 430.54  32.204  23.643
 431.04  32.087  23.581
 431.54  32.321  23.643
 432.04  32.204  23.612
 432.54  32.204  23.643
 433.04  32.204  23.643
 433.54  32.204  23.643
 434.04  32.438  23.643
 434.54  32.087  23.612
 435.04  32.204  23.643
 435.54  32.204  23.643
 436.04  32.204  23.612
 436.54  32.204  23.612
 437.04  32.204  23.643
 437.54  32.321  23.643
 438.04  32.204  23.643
 438.54  32.204  23.643
 439.04  32.204  23.643
 439.54  32.204  23.581
 440.04  32.204  23.643
 440.54  32.204  23.612
 441.04  32.321  23.612
 441.54  32.204  23.674
 442.04  32.321  23.643
 442.54  32.321  23.643
 443.04  32.438  23.643
 443.54  32.321  23.612
 444.04  32.321  23.674
 444.54  32.321  23.643
 445.04  32.321  23.643
 445.54  32.438  23.643
 446.04  32.438  23.643
 446.54  32.555  23.643
 447.04  32.321  23.643
 447.54  32.438  23.643
 448.04  32.438  23.643
 448.54  32.438  23.612
 449.04  32.672  23.643
 449.54  32.438  23.643
 450.04  32.672  23.643
 450.54  32.438  23.643
 451.04  32.438  23.612
 451.54  32.438  23.674
 452.04  32.555  23.643
 452.54  32.672  23.643
 453.04  32.555  23.643
 453.54  32.438  23.674
 454.04  32.438  23.612
 454.54  32.555  23.674
 455.04  32.438  23.643
 455.54  32.555  23.643
 456.04  32.438  23.643
 456.54  32.555  23.612
 457.04  32.672  23.643
 457.54  32.555  23.643
 458.04  32.672  23.643
 458.54  32.555  23.643
 459.04  32.555  23.643
 459.54  32.555  23.674
 460.04  32.555  23.643
 460.54  32.438  23.612
 461.04  32.555  23.643
 461.54  32.555  23.643
 462.04  32.672  23.643
 462.54  32.555  23.612
 463.04  32.555  23.643
 463.54  32.555  23.643
 464.04  32.672  23.643
 464.54  32.672  23.612
 465.04  32.555  23.643
 465.54  32.672  23.643
 466.04  32.672  23.643
 466.54  32.672  23.643
 467.04  32.555  23.643
 467.54  32.555  23.612
 468.04  32.555  23.643
 468.54  32.672  23.643
 469.04  32.672  23.674
 469.54  32.555  23.612
 470.04  32.672  23.612
 470.54  32.672  23.643
 471.04  32.906  23.612
 471.54  32.555  23.643
 472.04  32.789  23.674
 472.54  32.789  23.674
 473.04  32.789  23.643
 473.54  32.555  23.643
 474.04  32.672  23.643
 474.54  32.672  23.643
 475.04  32.789  23.705
 475.54  32.672  23.643
 476.04  32.789  23.612
 476.54  32.789  23.674
 477.04  32.789  23.643
 477.54  32.906  23.643
 478.04  32.906  23.643
 478.54  32.672  23.643
 479.04  32.789  23.674
 479.54  32.906  23.643
 480.04  32.906  23.643
 480.54  32.789  23.643
 481.04  33.022  23.643
 481.54  32.789  23.643
 482.04  32.906  23.674
 482.54  32.789  23.643
 483.04  32.906  23.643
 483.54  32.906  23.643
 484.04  33.139  23.643
 484.54  32.906  23.643
 485.04  32.789  23.643
 485.54  33.022  23.612
 486.04  32.906  23.612
 486.54  32.906  23.643
 487.04  32.906  23.612
 487.54  33.022  23.674
 488.04  33.022  23.643
 488.54  33.022  23.643
 489.04  32.906  23.643
 489.54  33.022  23.674
 490.04  33.022  23.643
 490.54  33.022  23.643
 491.04  32.906  23.643
 491.54  33.022  23.674
 492.04  32.906  23.581
 492.54  32.906  23.643
 493.04  33.139  23.674
 493.54  33.022  23.643
 494.04  33.256  23.643
 494.54  33.022  23.643
 495.04  33.256  23.705
 495.54  33.022  23.674
 496.04  33.022  23.674
 496.54  33.139  23.674
 497.04  33.139  23.674
 497.54  33.022  23.643
 498.04  33.139  23.643
 498.54  33.139  23.643
 499.04  33.022  23.643
 499.54  33.022  23.674
 500.04  33.139  23.674
 500.55  33.139  23.674
 501.05  33.139  23.674
 501.55  33.256  23.674
 502.05  33.256  23.674
 502.55  33.139  23.643
 503.05  33.139  23.674
 503.55  33.139  23.674
 504.05  33.139  23.612
 504.55  33.139  23.643
 505.05  33.256  23.643
 505.55  33.373  23.674
 506.05  33.256  23.674
 506.55  33.256  23.674
 507.05  33.256  23.643
 507.55  33.256  23.643
 508.05  33.139  23.643
 508.55  33.256  23.674
 509.05  33.256  23.674
 509.55  33.256  23.674
 510.05  33.256  23.674
 510.55  33.139  23.674
 511.05  33.256  23.674
 511.55  33.256  23.674
 512.05  33.139  23.643
 512.55  33.256  23.674
 513.05  33.256  23.674
 513.55  33.373  23.674
 514.05  33.373  23.643
 514.55  33.490  23.643
 515.05  33.373  23.643
 515.55  33.373  23.643
 516.05  33.373  23.643
 516.55  33.373  23.643
 517.05  33.256  23.643
 517.55  33.256  23.674
 518.05  33.373  23.674
 518.55  33.373  23.643
 519.05  33.256  23.643
 519.55  33.256  23.674
 520.05  33.490  23.643
 520.55  33.256  23.674
 521.05  33.490  23.674
 521.55  33.373  23.643
 522.05  33.373  23.612
 522.55  33.373  23.643
 523.05  33.256  23.674
 523.55  33.490  23.674
 524.05  33.490  23.674
 524.55  33.373  23.643
 525.05  33.490  23.643
 525.55  33.490  23.674
 526.05  33.490  23.674
 526.55  33.373  23.643
 527.05  33.490  23.612
 527.55  33.490  23.643
 528.05  33.490  23.674
 528.55  33.373  23.705
 529.05  33.490  23.643
 529.55  33.607  23.674
 530.05  33.607  23.643
 530.55  33.607  23.674
 531.05  33.490  23.643
 531.55  33.607  23.674
 532.05  33.607  23.643
 532.55  33.607  23.674
 533.05  33.490  23.643
 533.55  33.607  23.643
 534.05  33.724  23.674
 534.55  33.607  23.643
 535.05  33.607  23.643
 535.55  33.841  23.674
 536.05  33.724  23.643
 536.55  33.724  23.674
 537.05  33.607  23.674
 537.55  33.607  23.674
 538.05  33.607  23.643
 538.55  33.724  23.674
 539.05  33.724  23.674
 539.55  33.724  23.674
 540.05  33.490  23.674
 540.55  33.724  23.674
 541.05  33.490  23.674
 541.55  33.607  23.643
 542.05  33.490  23.674
 542.55  33.724  23.643
 543.05  33.607  23.674
 543.55  33.957  23.674
 544.05  33.373  23.643
 544.55  33.724  23.643
 545.05  33.724  23.612
 545.55  33.724  23.705
 546.05  33.724  23.643
 546.55  33.841  23.674
 547.05  33.724  23.643
 547.55  33.841  23.674
 548.05  33.724  23.705
 548.55  33.724  23.643
 549.05  33.841  23.674
 549.55  33.724  23.674
 550.05  33.841  23.674
 550.55  33.724  23.674
 551.05  33.841  23.674
 551.55  33.957  23.674
 552.05  33.841  23.674
 552.55  33.841  23.643
 553.05  33.724  23.674
 553.55  33.841  23.674
 554.05  33.724  23.674
 554.55  33.841  23.674
 555.05  33.957  23.643
 555.55  33.607  23.674
 556.05  33.957  23.674
 556.55  33.841  23.643
 557.05  33.841  23.674
 557.55  33.841  23.674
 558.05  33.957  23.674
 558.55  33.724  23.643
 559.05  33.957  23.705
 559.55  34.074  23.674
 560.05  33.841  23.674
 560.55  33.957  23.643
 561.05  33.841  23.674
 561.55  33.957  23.674
 562.05  33.841  23.705
 562.55  33.957  23.612
 563.05  33.841  23.674
 563.55  33.841  23.674
 564.05  33.957  23.674
 564.55  33.957  23.674
 565.05  34.074  23.674
 565.55  33.841  23.674
 566.05  33.957  23.674
 566.55  34.191  23.674
 567.05  34.074  23.674
 567.55  33.957  23.705
 568.05  33.957  23.643
 568.55  34.074  23.674
 569.05  34.074  23.674
 569.55  33.957  23.674
 570.05  34.074  23.643
 570.55  33.957  23.674
 571.05  34.074  23.674
 571.55  34.074  23.705
 572.05  34.074  23.705
 572.55  34.074  23.674
 573.05  33.957  23.643
 573.55  34.191  23.674
 574.05  34.074  23.674
 574.55  34.074  23.674
 575.05  34.074  23.674
 575.55  34.191  23.705
 576.05  34.191  23.674
 576.55  34.074  23.674
 577.05  34.308  23.674
 577.55  34.074  23.705
 578.05  33.957  23.674
 578.55  34.074  23.674
 579.05  34.191  23.674
 579.55  34.074  23.612
 580.05  34.074  23.705
 580.55  34.074  23.674
 581.05  34.191  23.612
 581.55  34.191  23.674
 582.05  34.191  23.674
 582.55  34.074  23.674
 583.05  34.191  23.643
 583.55  34.074  23.674
 584.05  34.074  23.674
 584.55  34.191  23.674
 585.05  34.191  23.674
 585.55  34.074  23.643
 586.05  34.191  23.674
 586.55  34.191  23.674
 587.05  34.191  23.705
 587.55  34.191  23.674
 588.05  34.191  23.643
 588.55  34.308  23.705
 589.05  34.191  23.674
 589.55  34.191  23.674
 590.05  34.308  23.674
 590.55  34.308  23.674
 591.05  34.425  23.674
 591.55  34.425  23.674
 592.05  34.308  23.674
 592.55  34.308  23.674
 593.05  34.191  23.705
 593.55  34.308  23.674
 594.05  34.425  23.674
 594.55  34.308  23.674
 595.05  34.425  23.705
 595.55  34.425  23.674
 596.05  34.425  23.643
 596.55  34.191  23.674
 597.05  34.308  23.674
 597.55  34.191  23.674
 598.05  34.542  23.674
 598.55  34.425  23.674
 599.05  34.308  23.643
 599.55  34.425  23.643
 600.05  34.308  23.674
 600.55  34.425  23.643
 601.05  34.425  23.705
 601.55  34.308  23.674
 602.05  34.191  23.674
 602.55  34.425  23.674
 603.05  34.542  23.674
 603.55  34.308  23.674
 604.05  34.659  23.674
 604.55  34.425  23.674
 605.05  34.308  23.674
 605.55  34.425  23.674
 606.05  34.308  23.674
 606.55  34.308  23.674
 607.05  34.308  23.674
 607.55  34.425  23.674
 608.05  34.425  23.674
 608.55  34.308  23.643
 609.05  34.542  23.643
 609.55  34.542  23.705
 610.05  34.425  23.674
 610.55  34.425  23.705
 611.05  34.425  23.705
 611.55  34.425  23.674
 612.05  34.542  23.674
 612.55  34.542  23.705
 613.05  34.425  23.674
 613.55  34.308  23.674
 614.05  34.659  23.705
 614.55  34.659  23.705
 615.05  34.542  23.674
 615.55  34.425  23.674
 616.05  34.659  23.674
 616.55  34.425  23.643
 617.05  34.542  23.674
 617.55  34.542  23.705
 618.05  34.542  23.705
 618.55  34.542  23.674
 619.05  34.542  23.674
 619.55  34.659  23.705
 620.05  34.542  23.643
 620.55  34.659  23.643
 621.05  34.542  23.674
 621.55  34.659  23.643
 622.05  34.659  23.705
 622.55  34.542  23.674
 623.05  34.659  23.705
 623.55  34.542  23.674
 624.05  34.542  23.674
 624.56  34.659  23.735
 625.06  34.776  23.705
 625.56  34.659  23.674
 626.06  34.776  23.705
 626.56  34.659  23.674
 627.06  34.659  23.705
 627.56  34.659  23.674
 628.06  34.892  23.705
 628.56  34.659  23.705
 629.06  34.542  23.674
 629.56  34.892  23.674
 630.06  34.776  23.674
 630.56  34.659  23.705
 631.06  34.659  23.674
 631.56  34.659  23.705
 632.06  34.776  23.705
 632.56  34.892  23.705
 633.06  34.776  23.674
 633.56  34.776  23.705
 634.06  34.776  23.674
 634.56  35.005  23.705
 635.06  34.659  23.705
 635.56  34.776  23.674
 636.06  34.892  23.735
 636.56  34.776  23.705
 637.06  34.892  23.674
 637.56  34.776  23.705
 638.06  34.776  23.674
 638.56  34.776  23.674
 639.06  34.776  23.674
 639.56  34.776  23.674
 640.06  35.005  23.674
 640.56  34.776  23.674
 641.06  34.776  23.674
 641.56  34.892  23.735
 642.06  34.776  23.705
 642.56  34.776  23.705
 643.06  34.776  23.735
 643.56  34.776  23.705
 644.06  34.776  23.705
 644.56  34.892  23.674
 645.06  34.892  23.705
 645.56  34.892  23.735
 646.06  34.892  23.705
 646.56  34.892  23.705
 647.06  34.892  23.674
 647.56  34.892  23.705
 648.06  34.776  23.674
 648.56  35.069  23.674
 649.06  34.892  23.735
 649.56  35.005  23.735
 650.06  34.892  23.705
 650.56  35.005  23.705
 651.06  35.005  23.643
 651.56  34.892  23.705
 652.06  34.892  23.705
 652.56  35.005  23.705
 653.06  34.892  23.705
 653.56  34.892  23.674
 654.06  35.005  23.674
 654.56  35.005  23.674
 655.06  34.892  23.674
 655.56  35.005  23.705
 656.06  35.069  23.674
 656.56  35.005  23.705
 657.06  35.005  23.705
 657.56  35.005  23.705
 658.06  35.005  23.705
 658.56  35.069  23.705
 659.06  34.892  23.705
 659.56  35.005  23.674
 660.06  35.069  23.735
 660.56  35.005  23.643
 661.06  34.892  23.705
 661.56  35.005  23.705
 662.06  35.005  23.705
 662.56  35.069  23.705
 663.06  35.005  23.674
 663.56  35.069  23.735
 664.06  35.005  23.674
 664.56  35.005  23.674
 665.06  35.005  23.674
 665.56  35.005  23.674
 666.06  35.005  23.705
 666.56  35.069  23.705
 667.06  35.005  23.705
 667.56  34.892  23.705
 668.06  35.069  23.674
 668.56  34.892  23.705
 669.06  35.005  23.705
 669.56  35.069  23.705
 670.06  35.005  23.705
 670.56  35.069  23.643
 671.06  35.069  23.674
 671.56  35.069  23.705
 672.06  35.005  23.705
 672.56  35.069  23.705
 673.06  35.133  23.643
 673.56  35.069  23.705
 674.06  35.069  23.766
 674.56  35.133  23.705
 675.06  35.133  23.705
 675.56  35.069  23.643
 676.06  35.069  23.705
 676.56  35.005  23.705
 677.06  35.069  23.705
 677.56  35.069  23.705
 678.06  35.069  23.705
 678.56  35.133  23.674
 679.06  35.133  23.674
 679.56  35.005  23.705
 680.06  35.069  23.674
 680.56  35.133  23.705
 681.06  35.133  23.674
 681.56  35.069  23.705
 682.06  35.069  23.674
 682.56  35.133  23.705
 683.06  35.069  23.705
 683.56  35.133  23.735
 684.06  35.197  23.705
 684.56  35.133  23.705
 685.06  35.197  23.705
 685.56  35.133  23.735
 686.06  35.133  23.705
 686.56  35.133  23.674
 687.06  35.133  23.643
 687.56  35.069  23.705
 688.06  35.069  23.674
 688.56  35.197  23.735
 689.06  35.069  23.674
 689.56  35.197  23.674
 690.06  35.197  23.705
 690.56  35.133  23.705
 691.06  35.325  23.674
 691.56  35.197  23.705
 692.06  35.133  23.705
 692.56  35.133  23.674
 693.06  35.197  23.735
 693.56  35.261  23.705
 694.06  35.197  23.674
 694.56  35.197  23.705
 695.06  35.261  23.705
 695.56  35.133  23.705
 696.06  35.197  23.643
 696.56  35.197  23.705
 697.06  35.197  23.705
 697.56  35.197  23.735
 698.06  35.197  23.705
 698.56  35.197  23.705
 699.06  35.133  23.705
 699.56  35.197  23.705
 700.06  35.197  23.705
 700.56  35.261  23.735
 701.06  35.261  23.705
 701.56  35.197  23.705
 702.06  35.133  23.705
 702.56  35.197  23.674
 703.06  35.197  23.705
 703.56  35.197  23.735
 704.06  35.261  23.735
 704.56  35.261  23.705
 705.06  35.389  23.705
 705.56  35.261  23.705
 706.06  35.261  23.705
 706.56  35.261  23.735
 707.06  35.325  23.674
 707.56  35.261  23.705
 708.06  35.261  23.705
 708.56  35.197  23.705
 709.06  35.261  23.705
 709.56  35.325  23.735
 710.06  35.261  23.705
 710.56  35.261  23.674
 711.06  35.261  23.735
 711.56  35.261  23.705
 712.06  35.197  23.705
 712.56  35.261  23.705
 713.06  35.261  23.705
 713.56  35.261  23.705
 714.06  35.325  23.735
 714.56  35.261  23.705
 715.06  35.325  23.705
 715.56  35.325  23.705
 716.06  35.261  23.735
 716.56  35.389  23.735
 717.06  35.325  23.705
 717.56  35.261  23.674
 718.06  35.261  23.705
 718.56  35.325  23.705
 719.06  35.197  23.705
 719.56  35.325  23.705
 720.06  35.325  23.735
 720.56  35.389  23.674
 721.06  35.261  23.735
 721.56  35.261  23.705
 722.06  35.325  23.735
 722.56  35.325  23.735
 723.06  35.261  23.705
 723.56  35.389  23.735
 724.06  35.453  23.705
 724.56  35.325  23.705
 725.06  35.261  23.705
 725.56  35.389  23.705
 726.06  35.325  23.735
 726.57  35.325  23.705
 727.07  35.325  23.705
 727.57  35.389  23.705
 728.07  35.325  23.705
 728.57  35.325  23.705
 729.07  35.389  23.735
 729.57  35.389  23.735
 730.07  35.389  23.674
 730.57  35.389  23.735
 731.07  35.389  23.674
 731.57  35.389  23.674
 732.07  35.389  23.674
 732.57  35.389  23.705
 733.07  35.389  23.735
 733.57  35.389  23.735
 734.07  35.389  23.705
 734.57  35.325  23.705
 735.07  35.389  23.705
 735.57  35.325  23.735
 736.07  35.453  23.735
 736.57  35.389  23.735
 737.07  35.325  23.705
 737.57  35.389  23.705
 738.07  35.389  23.735
 738.57  35.389  23.705
 739.07  35.453  23.766
 739.57  35.389  23.735
 740.07  35.389  23.766
 740.57  35.517  23.705
 741.07  35.389  23.735
 741.57  35.453  23.735
 742.07  35.389  23.705
 742.57  35.389  23.705
 743.07  35.453  23.735
 743.57  35.389  23.705
 744.07  35.453  23.735
 744.57  35.453  23.735
 745.07  35.389  23.735
 745.57  35.453  23.766
 746.07  35.453  23.705
 746.57  35.517  23.735
 747.07  35.453  23.705
 747.57  35.453  23.705
 748.07  35.453  23.705
 748.57  35.517  23.674
 749.07  35.453  23.735
 749.57  35.453  23.735
 750.07  35.453  23.674
 750.57  35.453  23.705
 751.07  35.453  23.735
 751.57  35.389  23.735
 752.07  35.453  23.705
 752.57  35.453  23.705
 753.07  35.517  23.735
 753.57  35.453  23.735
 754.07  35.389  23.705
 754.57  35.389  23.705
 755.07  35.453  23.705
 755.57  35.453  23.705
 756.07  35.517  23.705
 756.57  35.453  23.766
 757.07  35.453  23.705
 757.57  35.517  23.705
 758.07  35.517  23.735
 758.57  35.453  23.735
 759.07  35.581  23.705
 759.57  35.581  23.674
 760.07  35.581  23.797
 760.57  35.517  23.766
 761.07  35.517  23.735
 761.57  35.517  23.735
 762.07  35.517  23.735
 762.57  35.517  23.705
 763.07  35.645  23.705
 763.57  35.453  23.705
 764.07  35.581  23.735
 764.57  35.517  23.705
 765.07  35.453  23.735
 765.57  35.581  23.705
 766.07  35.517  23.735
 766.57  35.517  23.766
 767.07  35.517  23.735
 767.57  35.581  23.735
 768.07  35.581  23.735
 768.57  35.645  23.766
 769.07  35.581  23.735
 769.57  35.581  23.735
 770.07  35.581  23.766
 770.57  35.581  23.735
 771.07  35.581  23.735
 771.57  35.645  23.735
 772.07  35.453  23.735
 772.57  35.453  23.735
 773.07  35.581  23.705
 773.57  35.581  23.735
 774.07  35.581  23.705
 774.57  35.645  23.705
 775.07  35.645  23.735
 775.57  35.581  23.735
 776.07  35.581  23.766
 776.57  35.645  23.674
 777.07  35.581  23.766
 777.57  35.453  23.735
 778.07  35.517  23.735
 778.57  35.581  23.735
 779.07  35.453  23.735
 779.57  35.581  23.705
 780.07  35.581  23.735
 780.57  35.645  23.735
 781.07  35.581  23.735
 781.57  35.645  23.735
 782.07  35.581  23.735
 782.57  35.645  23.735
 783.07  35.645  23.735
 783.57  35.581  23.735
 784.07  35.645  23.705
 784.57  35.645  23.705
 785.07  35.645  23.766
 785.57  35.645  23.735
 786.07  35.709  23.735
 786.57  35.581  23.735
 787.07  35.645  23.735
 787.57  35.645  23.735
 788.07  35.645  23.735
 788.57  35.773  23.705
 789.07  35.645  23.735
 789.57  35.709  23.735
 790.07  35.645  23.705
 790.57  35.645  23.705
 791.07  35.645  23.735
 791.57  35.581  23.735
 792.07  35.709  23.735
 792.57  35.709  23.735
 793.07  35.645  23.735
 793.57  35.709  23.735
 794.07  35.645  23.735
 794.57  35.645  23.735
 795.07  35.645  23.735
 795.57  35.709  23.766
 796.07  35.709  23.735
 796.57  35.645  23.766
 797.07  35.709  23.735
 797.57  35.709  23.735
 798.07  35.709  23.735
 798.57  35.709  23.735
 799.07  35.837  23.735
 799.57  35.645  23.735
 800.07  35.773  23.735
 800.57  35.645  23.735
 801.07  35.709  23.705
 801.57  35.645  23.735
 802.07  35.709  23.766
 802.57  35.709  23.735
 803.07  35.645  23.735
 803.57  35.709  23.735
 804.07  35.645  23.735
 804.57  35.709  23.705
 805.07  35.709  23.797
 805.57  35.709  23.735
 806.07  35.709  23.735
 806.57  35.773  23.735
 807.07  35.709  23.705
 807.57  35.645  23.766
 808.07  35.709  23.735
 808.57  35.709  23.735
 809.07  35.709  23.735
 809.57  35.709  23.766
 810.07  35.709  23.735
 810.57  35.709  23.735
 811.07  35.773  23.766
 811.57  35.709  23.766
 812.07  35.773  23.797
 812.57  35.645  23.735
 813.07  35.709  23.766
 813.57  35.773  23.705
 814.07  35.773  23.735
 814.57  35.837  23.705
 815.07  35.837  23.766
 815.57  35.709  23.735
 816.07  35.773  23.766
 816.57  35.837  23.735
 817.07  35.773  23.797
 817.57  35.709  23.735
 818.07  35.837  23.735
 818.57  35.773  23.735
 819.07  35.709  23.735
 819.57  35.837  23.766
 820.07  35.773  23.735
 820.57  35.837  23.735
 821.07  35.837  23.735
 821.57  35.773  23.735
 822.07  35.645  23.766
 822.57  35.773  23.735
 823.07  35.837  23.735
 823.57  35.773  23.766
 824.07  35.773  23.735
 824.57  35.837  23.766
 825.07  35.773  23.735
 825.57  35.837  23.766
 826.07  35.837  23.735
 826.57  35.773  23.705
 827.07  35.837  23.735
 827.57  35.837  23.766
 828.07  35.773  23.766
 828.57  35.709  23.705
 829.07  35.837  23.735
 829.57  35.773  23.735
 830.07  35.837  23.766
 830.57  35.773  23.766
 831.07  35.773  23.735
 831.57  35.837  23.735
 832.07  35.837  23.766
 832.57  35.837  23.766
 833.07  35.773  23.735
 833.57  35.837  23.766
 834.07  35.837  23.766
 834.57  35.837  23.735
 835.07  35.901  23.766
 835.57  35.901  23.735
 836.07  35.837  23.735
 836.57  35.837  23.735
 837.07  35.837  23.735
 837.57  35.837  23.735
 838.07  35.837  23.766
 838.57  35.901  23.735
 839.07  35.901  23.735
 839.58  35.837  23.735
 840.08  35.901  23.735
 840.58  35.965  23.735
 841.08  35.837  23.735
 841.58  35.901  23.735
 842.08  35.837  23.735
 842.58  35.837  23.766
 843.08  35.965  23.766
 843.58  35.837  23.735
 844.08  35.773  23.735
 844.58  35.901  23.735
 845.08  35.837  23.735
 845.58  35.837  23.735
 846.08  35.901  23.766
 846.58  35.901  23.735
 847.08  35.837  23.797
 847.58  35.901  23.705
 848.08  35.837  23.766
 848.58  35.965  23.735
 849.08  35.901  23.735
 849.58  35.901  23.735
 850.08  35.965  23.735
 850.58  35.965  23.735
 851.08  35.965  23.766
 851.58  35.901  23.766
 852.08  35.901  23.705
 852.58  35.837  23.735
 853.08  35.901  23.766
 853.58  35.965  23.828
 854.08  35.965  23.735
 854.58  35.901  23.735
 855.08  35.965  23.766
 855.58  35.965  23.735
 856.08  35.965  23.735
 856.58  35.965  23.735
 857.08  35.965  23.735
 857.58  35.901  23.797
 858.08  35.901  23.735
 858.58  36.029  23.735
 859.08  36.029  23.766
 859.58  35.837  23.766
 860.08  35.965  23.766
 860.58  35.901  23.766
 861.08  35.901  23.766
 861.58  35.965  23.766
 862.08  35.965  23.735
 862.58  36.029  23.766
 863.08  35.965  23.766
 863.58  36.029  23.735
 864.08  35.965  23.766
 864.58  35.965  23.797
 865.08  36.029  23.766
 865.58  35.965  23.735
 866.08  36.029  23.735
 866.58  35.965  23.766
 867.08  35.901  23.766
 867.58  35.965  23.735
 868.08  36.029  23.735
 868.58  35.965  23.735
 869.08  35.965  23.766
 869.58  35.965  23.735
 870.08  35.965  23.766
 870.58  36.029  23.766
 871.08  36.029  23.766
 871.58  35.901  23.735
 872.08  35.965  23.766
 872.58  36.029  23.766
 873.08  35.965  23.705
 873.58  36.029  23.766
 874.08  35.965  23.735
 874.58  36.029  23.735
 875.08  36.029  23.766
 875.58  35.965  23.766
 876.08  36.029  23.766
 876.58  35.965  23.766
 877.08  35.965  23.766
 877.58  35.965  23.766
 878.08  35.965  23.735
 878.58  35.965  23.735
 879.08  35.965  23.766
 879.58  36.029  23.674
 880.08  35.965  23.766
 880.58  35.965  23.766
 881.08  36.029  23.735
 881.58  36.029  23.766
 882.08  36.029  23.766
 882.58  35.965  23.766
 883.08  35.901  23.735
 883.58  36.029  23.766
 884.08  36.029  23.766
 884.58  35.965  23.766
 885.08  36.029  23.766
 885.58  36.029  23.766
 886.08  36.029  23.705
 886.58  36.093  23.735
 887.08  36.029  23.766
 887.58  36.093  23.766
 888.08  36.093  23.735
 888.58  36.029  23.766
 889.08  36.029  23.766
 889.58  36.029  23.766
 890.08  36.093  23.735
 890.58  36.093  23.766
 891.08  35.965  23.735
 891.58  36.029  23.766
 892.08  35.965  23.735
 892.58  36.029  23.705
 893.08  36.029  23.735
 893.58  36.029  23.735
 894.08  36.029  23.735
 894.58  36.029  23.735
 895.08  36.093  23.766
 895.58  36.029  23.766
 896.08  36.093  23.735
 896.58  36.093  23.766
 897.08  36.157  23.797
 897.58  36.093  23.766
 898.08  36.093  23.766
 898.58  36.093  23.735
 899.08  36.157  23.735
 899.58  36.093  23.766
 900.08  36.157  23.766
 900.58  36.157  23.797
 901.08  36.157  23.735
 901.58  36.029  23.766
 902.08  36.093  23.766
 902.58  36.093  23.766
 903.08  36.093  23.766
 903.58  36.093  23.766
 904.08  36.093  23.797
 904.58  36.157  23.766
 905.08  36.157  23.735
 905.58  36.093  23.766
 906.08  36.093  23.797
 906.58  36.093  23.766
 907.08  36.157  23.766
 907.58  36.157  23.797
 908.08  36.157  23.766
 908.58  36.093  23.797
 909.08  36.029  23.735
 909.58  36.157  23.766
 910.08  36.093  23.766
 910.58  36.093  23.766
 911.08  36.093  23.766
 911.58  36.157  23.735
 912.08  36.093  23.797
 912.58  36.157  23.766
 913.08  36.093  23.766
 913.58  36.221  23.766
 914.08  36.221  23.766
 914.58  36.157  23.766
 915.08  36.157  23.735
 915.58  36.221  23.766
 916.08  36.157  23.797
 916.58  36.157  23.797
 917.08  36.221  23.797
 917.58  36.157  23.797
 918.08  36.157  23.766
 918.58  36.157  23.828
 919.08  36.157  23.766
 919.58  36.221  23.797
 920.08  36.157  23.766
 920.58  36.157  23.766
 921.08  36.157  23.766
 921.58  36.093  23.735
 922.08  36.157  23.797
 922.58  36.157  23.766
 923.08  36.157  23.797
 923.58  36.157  23.797
 924.08  36.221  23.766
 924.58  36.221  23.735
 925.08  36.157  23.797
 925.58  36.221  23.766
 926.08  36.157  23.797
 926.58  36.221  23.797
 927.08  36.157  23.797
 927.58  36.221  23.797
 928.08  36.221  23.735
 928.58  36.093  23.797
 929.08  36.221  23.766
 929.58  36.157  23.766
 930.08  36.285  23.766
 930.58  36.221  23.797
 931.08  36.157  23.766
 931.58  36.221  23.735
 932.08  36.157  23.735
 932.58  36.221  23.735
 933.08  36.221  23.766
 933.58  36.221  23.766
 934.08  36.157  23.797
 934.58  36.157  23.797
 935.08  36.221  23.766
 935.58  36.221  23.735
 936.08  36.285  23.766
 936.58  36.221  23.797
 937.08  36.157  23.766
 937.58  36.157  23.766
 938.08  36.221  23.766
 938.58  36.221  23.766
 939.08  36.285  23.735
 939.58  36.285  23.766
 940.08  36.285  23.797
 940.58  36.157  23.766
 941.08  36.221  23.797
 941.58  36.285  23.766
 942.08  36.221  23.766
 942.58  36.221  23.735
 943.08  36.221  23.797
 943.58  36.285  23.766
 944.08  36.221  23.766
 944.58  36.221  23.766
 945.08  36.221  23.766
 945.58  36.221  23.766
 946.08  36.221  23.766
 946.58  36.157  23.735
 947.08  36.285  23.766
 947.58  36.285  23.766
 948.08  36.285  23.766
 948.58  36.221  23.766
 949.08  36.285  23.797
 949.58  36.285  23.766
 950.08  36.221  23.766
 950.58  36.285  23.735
 951.08  36.349  23.766
 951.58  36.349  23.797
 952.08  36.349  23.766
 952.58  36.221  23.766
 953.09  36.285  23.797
 953.59  36.221  23.797
 954.09  36.349  23.766
 954.59  36.285  23.797
 955.09  36.285  23.766
 955.59  36.285  23.797
 956.09  36.285  23.766
 956.59  36.221  23.797
 957.09  36.285  23.797
 957.59  36.285  23.766
 958.09  36.285  23.797
 958.59  36.285  23.766
 959.09  36.285  23.797
 959.59  36.285  23.735
 960.09  36.285  23.797
 960.59  36.349  23.797
 961.09  36.349  23.797
 961.59  36.349  23.797
 962.09  36.285  23.797
 962.59  36.349  23.797
 963.09  36.285  23.797
 963.59  36.349  23.797
 964.09  36.349  23.766
 964.59  36.285  23.797
 965.09  36.349  23.766
 965.59  36.349  23.797
 966.09  36.349  23.766
 966.59  36.413  23.797
 967.09  36.349  23.797
 967.59  36.285  23.766
 968.09  36.349  23.735
 968.59  36.349  23.766
 969.09  36.349  23.797
 969.59  36.285  23.797
 970.09  36.349  23.797
 970.59  36.413  23.766
 971.09  36.349  23.766
 971.59  36.349  23.797
 972.09  36.349  23.766
 972.59  36.349  23.766
 973.09  36.413  23.766
 973.59  36.349  23.766
 974.09  36.349  23.797
 974.59  36.349  23.797
 975.09  36.349  23.766
 975.59  36.413  23.766
 976.09  36.285  23.735
 976.59  36.413  23.797
 977.09  36.477  23.766
 977.59  36.349  23.797
 978.09  36.349  23.766
 978.59  36.413  23.797
 979.09  36.349  23.766
 979.59  36.541  23.766
 980.09  36.349  23.828
 980.59  36.349  23.766
 981.09  36.349  23.797
 981.59  36.477  23.797
 982.09  36.477  23.766
 982.59  36.413  23.797
 983.09  36.349  23.797
 983.59  36.349  23.828
 984.09  36.413  23.828
 984.59  36.413  23.797
 985.09  36.413  23.797
 985.59  36.349  23.766
 986.09  36.413  23.797
 986.59  36.285  23.828
 987.09  36.413  23.797
 987.59  36.349  23.766
 988.09  36.349  23.735
 988.59  36.413  23.797
 989.09  36.413  23.766
 989.59  36.413  23.797
 990.09  36.413  23.766
 990.59  36.413  23.828
 991.09  36.413  23.797
 991.59  36.413  23.797
 992.09  36.413  23.766
 992.59  36.413  23.797
 993.09  36.413  23.828
 993.59  36.413  23.797
 994.09  36.477  23.766
 994.59  36.413  23.766
 995.09  36.477  23.797
 995.59  36.413  23.766
 996.09  36.413  23.797
 996.59  36.349  23.797
 997.09  36.413  23.797
 997.59  36.541  23.797
 998.09  36.413  23.797
 998.59  36.477  23.828
 999.09  36.477  23.766
 999.59  36.349  23.797
1000.09  36.413  23.797
1000.59  36.477  23.766
1001.09  36.413  23.766
1001.59  36.413  23.797
1002.09  36.349  23.797
1002.59  36.413  23.797
1003.09  36.477  23.797
1003.59  36.349  23.797
1004.09  36.477  23.797
1004.59  36.477  23.797
1005.09  36.413  23.828
1005.59  36.541  23.766
1006.09  36.413  23.797
1006.59  36.477  23.766
1007.09  36.477  23.797
1007.59  36.477  23.766
1008.09  36.477  23.766
1008.59  36.541  23.828
1009.09  36.413  23.797
1009.59  36.413  23.828
1010.09  36.477  23.828
1010.59  36.477  23.766
1011.09  36.477  23.766
1011.59  36.477  23.797
1012.09  36.477  23.797
1012.59  36.541  23.797
1013.09  36.413  23.797
1013.59  36.413  23.797
1014.09  36.477  23.797
1014.59  36.477  23.735
1015.09  36.477  23.797
1015.59  36.477  23.797
1016.09  36.477  23.797
1016.59  36.477  23.797
1017.09  36.477  23.797
1017.59  36.413  23.797
1018.09  36.477  23.797
1018.59  36.477  23.766
1019.09  36.541  23.766
1019.59  36.477  23.797
1020.09  36.477  23.828
1020.59  36.477  23.797
1021.09  36.477  23.797
1021.59  36.477  23.797
1022.09  36.541  23.797
1022.59  36.541  23.797
1023.09  36.477  23.828
1023.59  36.477  23.797
1024.09  36.477  23.797
1024.59  36.477  23.797
1025.09  36.477  23.766
1025.59  36.477  23.797
1026.09  36.477  23.797
1026.59  36.477  23.797
1027.09  36.541  23.797
1027.59  36.541  23.828
1028.09  36.477  23.797
1028.59  36.541  23.797
1029.09  36.541  23.797
1029.59  36.541  23.797
1030.09  36.605  23.797
1030.59  36.541  23.797
1031.09  36.541  23.828
1031.59  36.477  23.797
1032.09  36.477  23.797
1032.59  36.541  23.828
1033.09  36.477  23.797
1033.59  36.541  23.828
1034.09  36.477  23.797
1034.59  36.541  23.797
1035.09  36.541  23.797
1035.59  36.541  23.797
1036.09  36.605  23.828
1036.59  36.605  23.828
1037.09  36.541  23.797
1037.59  36.605  23.828
1038.09  36.477  23.766
1038.59  36.541  23.797
1039.09  36.477  23.766
1039.59  36.605  23.766
1040.09  36.541  23.797
1040.59  36.541  23.797
1041.09  36.541  23.797
1041.59  36.605  23.859
1042.09  36.541  23.828
1042.59  36.541  23.797
1043.09  36.541  23.797
1043.59  36.605  23.859
1044.09  36.413  23.797
1044.59  36.605  23.797
1045.09  36.669  23.797
1045.59  36.541  23.797
1046.09  36.541  23.828
1046.59  36.541  23.828
1047.09  36.541  23.766
1047.59  36.541  23.797
1048.09  36.605  23.828
1048.59  36.605  23.797
1049.09  36.541  23.797
1049.59  36.541  23.828
1050.09  36.669  23.828
1050.59  36.541  23.766
1051.09  36.477  23.828
1051.59  36.605  23.797
1052.09  36.605  23.797
1052.59  36.541  23.797
1053.09  36.605  23.766
1053.59  36.605  23.828
1054.09  36.541  23.828
1054.59  36.477  23.828
1055.09  36.605  23.797
1055.59  36.541  23.797
1056.09  36.669  23.797
1056.59  36.605  23.797
1057.09  36.669  23.889
1057.59  36.605  23.828
1058.09  36.605  23.766
1058.59  36.605  23.797
1059.09  36.605  23.766
1059.59  36.605  23.797
1060.09  36.605  23.797
1060.59  36.605  23.797
1061.09  36.541  23.797
1061.59  36.605  23.828
1062.09  36.605  23.797
1062.59  36.605  23.828
1063.09  36.605  23.797
1063.59  36.541  23.828
1064.09  36.605  23.828
1064.59  36.605  23.797
1065.09  36.669  23.797
1065.59  36.605  23.766
1066.10  36.605  23.797
1066.60  36.669  23.797
1067.10  36.669  23.828
1067.60  36.605  23.828
1068.10  36.605  23.766
1068.60  36.605  23.859
1069.10  36.669  23.828
1069.60  36.605  23.797
1070.10  36.605  23.797
1070.60  36.797  23.828
1071.10  36.669  23.797
1071.60  36.669  23.797
1072.10  36.669  23.828
1072.60  36.605  23.828
1073.10  36.669  23.797
1073.60  36.605  23.828
1074.10  36.605  23.828
1074.60  36.669  23.797
1075.10  36.669  23.828
1075.60  36.669  23.828
1076.10  36.669  23.859
1076.60  36.733  23.828
1077.10  36.669  23.797
1077.60  36.605  23.859
1078.10  36.669  23.735
1078.60  36.669  23.828
1079.10  36.669  23.828
1079.60  36.669  23.828
1080.10  36.733  23.828
1080.60  36.733  23.828
1081.10  36.669  23.828
1081.60  36.669  23.797
1082.10  36.669  23.797
1082.60  36.669  23.828
1083.10  36.669  23.828
1083.60  36.733  23.797
1084.10  36.733  23.828
1084.60  36.669  23.828
1085.10  36.669  23.797
1085.60  36.733  23.828
1086.10  36.733  23.859
1086.60  36.669  23.766
1087.10  36.669  23.828
1087.60  36.733  23.797
1088.10  36.733  23.828
1088.60  36.669  23.828
1089.10  36.733  23.828
1089.60  36.669  23.797
1090.10  36.733  23.828
1090.60  36.733  23.859
1091.10  36.669  23.828
1091.60  36.733  23.828
1092.10  36.669  23.828
1092.60  36.733  23.889
1093.10  36.733  23.828
1093.60  36.669  23.828
1094.10  36.605  23.828
1094.60  36.797  23.828
1095.10  36.605  23.797
1095.60  36.669  23.828
1096.10  36.797  23.828
1096.60  36.797  23.828
1097.10  36.733  23.828
1097.60  36.733  23.797
1098.10  36.733  23.797
1098.60  36.733  23.828
1099.10  36.669  23.828
1099.60  36.733  23.828
1100.10  36.733  23.828
1100.60  36.733  23.828
1101.10  36.797  23.828
1101.60  36.733  23.797
1102.10  36.733  23.828
1102.60  36.733  23.828
1103.10  36.733  23.828
1103.60  36.797  23.797
1104.10  36.797  23.828
1104.60  36.797  23.828
1105.10  36.733  23.828
1105.60  36.733  23.828
1106.10  36.733  23.828
1106.60  36.733  23.828
1107.10  36.733  23.797
1107.60  36.733  23.797
1108.10  36.733  23.828
1108.60  36.797  23.859
1109.10  36.669  23.797
1109.60  36.733  23.828
1110.10  36.733  23.859
1110.60  36.669  23.797
1111.10  36.733  23.828
1111.60  36.797  23.797
1112.10  36.797  23.828
1112.60  36.797  23.828
1113.10  36.733  23.797
1113.60  36.733  23.797
1114.10  36.733  23.828
1114.60  36.797  23.797
1115.10  36.797  23.828
1115.60  36.733  23.828
1116.10  36.733  23.828
1116.60  36.797  23.797
1117.10  36.733  23.828
1117.60  36.733  23.797
1118.10  36.797  23.828
1118.60  36.925  23.859
1119.10  36.733  23.797
1119.60  36.669  23.797
1120.10  36.797  23.828
1120.60  36.797  23.859
1121.10  36.797  23.828
1121.60  36.797  23.828
1122.10  36.733  23.797
1122.60  36.733  23.797
1123.10  36.733  23.766
1123.60  36.733  23.797
1124.10  36.797  23.828
1124.60  36.797  23.828
1125.10  36.861  23.828
1125.60  36.861  23.828
1126.10  36.861  23.859
1126.60  36.797  23.828
1127.10  36.861  23.859
1127.60  36.861  23.828
1128.10  36.733  23.797
1128.60  36.797  23.859
1129.10  36.861  23.828
1129.60  36.797  23.797
1130.10  36.861  23.828
1130.60  36.797  23.859
1131.10  36.861  23.828
1131.60  36.797  23.828
1132.10  36.797  23.828
1132.60  36.861  23.828
1133.10  36.861  23.797
1133.60  36.861  23.828
1134.10  36.797  23.828
1134.60  36.733  23.797
1135.10  36.861  23.828
1135.60  36.925  23.828
1136.10  36.797  23.797
1136.60  36.797  23.828
1137.10  36.797  23.828
1137.60  36.733  23.828
1138.10  36.861  23.797
1138.60  36.797  23.797
1139.10  36.797  23.828
1139.60  36.733  23.859
1140.10  36.797  23.828
1140.60  36.797  23.766
1141.10  36.797  23.828
1141.60  36.861  23.828
1142.10  36.797  23.828
1142.60  36.797  23.859
1143.10  36.797  23.828
1143.60  36.861  23.828
1144.10  36.861  23.828
1144.60  36.925  23.828
1145.10  36.861  23.828
1145.60  36.797  23.828
1146.10  36.861  23.828
1146.60  36.861  23.797
1147.10  36.861  23.859
1147.60  36.797  23.828
1148.10  36.861  23.797
1148.60  36.861  23.797
1149.10  36.861  23.859
1149.60  36.925  23.828
1150.10  36.861  23.828
1150.60  36.861  23.828
1151.10  36.861  23.859
1151.60  36.861  23.828
1152.10  36.861  23.828
1152.60  36.861  23.859
1153.10  36.797  23.828
1153.60  36.861  23.828
1154.10  36.925  23.859
1154.60  36.861  23.859
1155.10  36.925  23.828
1155.60  36.925  23.889
1156.10  36.861  23.859
1156.60  36.861  23.859
1157.10  36.797  23.828
1157.60  36.925  23.859
1158.10  36.861  23.828
1158.60  36.861  23.828
1159.10  36.925  23.828
1159.60  36.925  23.828
1160.10  36.925  23.797
1160.60  36.861  23.828
1161.10  36.861  23.828
1161.60  36.861  23.859
1162.10  36.925  23.828
1162.60  36.861  23.859
1163.10  36.861  23.828
1163.60  36.861  23.828
1164.10  36.925  23.859
1164.60  36.861  23.828
1165.10  36.861  23.828
1165.60  36.925  23.828
1166.10  36.861  23.859
1166.60  36.989  23.889
1167.10  36.989  23.828
1167.60  36.925  23.828
1168.10  36.861  23.859
1168.60  36.989  23.766
1169.10  36.861  23.828
1169.60  36.797  23.828
1170.10  36.925  23.828
1170.60  36.861  23.828
1171.10  36.925  23.828
1171.60  36.925  23.797
1172.10  36.925  23.828
1172.60  36.925  23.828
1173.10  36.925  23.828
1173.60  36.925  23.859
1174.10  36.861  23.828
1174.60  36.925  23.797
1175.10  36.861  23.828
1175.60  36.925  23.828
1176.10  36.925  23.828
1176.60  36.925  23.828
1177.10  36.925  23.859
1177.60  36.925  23.828
1178.10  36.925  23.828
1178.60  36.925  23.859
1179.11  36.925  23.828
1179.61  36.925  23.828
1180.11  36.989  23.828
1180.61  36.925  23.859
1181.11  36.989  23.828
1181.61  36.989  23.828
1182.11  36.925  23.859
1182.61  36.925  23.828
1183.11  36.925  23.828
1183.61  37.053  23.859
1184.11  36.989  23.828
1184.61  36.925  23.828
1185.11  36.925  23.859
1185.61  36.925  23.828
1186.11  36.925  23.828
1186.61  36.989  23.828
1187.11  36.861  23.828
1187.61  36.989  23.828
1188.11  36.861  23.797
1188.61  36.925  23.828
1189.11  36.989  23.859
1189.61  36.925  23.828
1190.11  36.989  23.859
1190.61  36.925  23.828
1191.11  36.925  23.828
1191.61  36.925  23.859
1192.11  36.989  23.889
1192.61  36.861  23.859
1193.11  37.053  23.859
1193.61  36.861  23.828
1194.11  36.989  23.859
1194.61  36.989  23.828
1195.11  36.989  23.859
1195.61  36.925  23.828
1196.11  36.989  23.797
1196.61  37.053  23.859
1197.11  36.989  23.889
1197.61  36.989  23.859
1198.11  36.989  23.859
1198.61  36.989  23.828
1199.11  37.117  23.859
1199.61  36.925  23.828
1200.11  36.989  23.828
1200.61  36.989  23.828
1201.11  37.053  23.859
1201.61  36.989  23.797
1202.11  36.925  23.859
1202.61  36.989  23.828
1203.11  36.989  23.859
1203.61  36.989  23.859
1204.11  36.989  23.889
1204.61  37.053  23.828
1205.11  36.925  23.859
1205.61  37.053  23.859
1206.11  37.053  23.889
1206.61  36.989  23.859
1207.11  36.989  23.859
1207.61  36.989  23.859
1208.11  36.989  23.859
1208.61  37.053  23.859
1209.11  37.053  23.828
1209.61  36.925  23.859
1210.11  36.925  23.828
1210.61  36.989  23.859
1211.11  36.989  23.859
1211.61  37.053  23.828
1212.11  37.053  23.859
1212.61  36.989  23.859
1213.11  37.053  23.859
1213.61  37.053  23.859
1214.11  37.053  23.859
1214.61  37.053  23.859
1215.11  36.989  23.828
1215.61  36.989  23.859
1216.11  36.925  23.859
1216.61  37.053  23.828
1217.11  37.053  23.828
1217.61  36.989  23.859
1218.11  37.053  23.859
1218.61  36.989  23.859
1219.11  37.245  23.859
1219.61  37.053  23.859
1220.11  36.989  23.797
1220.61  36.925  23.828
1221.11  37.053  23.828
1221.61  37.053  23.828
1222.11  36.989  23.859
1222.61  36.925  23.828
1223.11  36.989  23.859
1223.61  36.989  23.828
1224.11  37.053  23.828
1224.61  37.053  23.828
1225.11  37.117  23.859
1225.61  37.053  23.828
1226.11  36.989  23.828
1226.61  37.053  23.859
1227.11  37.053  23.859
1227.61  36.989  23.828
1228.11  36.925  23.859
1228.61  37.117  23.889
1229.11  37.117  23.859
1229.61  36.989  23.859
1230.11  37.053  23.859
1230.61  37.053  23.859
1231.11  37.053  23.828
1231.61  37.053  23.859
1232.11  37.117  23.828
1232.61  37.053  23.889
1233.11  36.989  23.889
1233.61  37.053  23.859
1234.11  37.053  23.859
1234.61  36.989  23.828
1235.11  37.053  23.859
1235.61  36.989  23.859
1236.11  36.989  23.859
1236.61  36.989  23.859
1237.11  37.053  23.828
1237.61  37.053  23.889
1238.11  37.117  23.889
1238.61  36.989  23.828
1239.11  37.053  23.859
1239.61  37.117  23.828
1240.11  37.117  23.889
1240.61  37.053  23.889
1241.11  37.053  23.889
1241.61  37.117  23.859
1242.11  37.117  23.859
1242.61  37.053  23.859
1243.11  37.117  23.797
1243.61  37.117  23.828
1244.11  37.117  23.859
1244.61  37.053  23.859
1245.11  37.181  23.889
1245.61  36.989  23.859
1246.11  37.181  23.828
1246.61  37.053  23.889
1247.11  37.053  23.859
1247.61  37.117  23.859
1248.11  37.053  23.859
1248.61  37.117  23.828
1249.11  37.053  23.859
1249.61  37.117  23.859
1250.11  37.053  23.889
1250.61  37.117  23.859
1251.11  37.117  23.889
1251.61  37.117  23.889
1252.11  37.117  23.859
1252.61  37.117  23.889
1253.11  37.117  23.859
1253.61  37.117  23.859
1254.11  37.053  23.859
1254.61  37.117  23.859
1255.11  37.117  23.859
1255.61  37.053  23.859
1256.11  37.117  23.859
1256.61  37.053  23.889
1257.11  37.117  23.859
1257.61  37.117  23.859
1258.11  37.117  23.889
1258.61  37.053  23.920
1259.11  37.053  23.859
1259.61  37.117  23.828
1260.11  37.117  23.859
1260.61  37.117  23.859
1261.11  37.117  23.889
1261.61  37.181  23.859
1262.11  37.181  23.859
1262.61  37.117  23.859
1263.11  37.117  23.859
1263.61  37.117  23.828
1264.11  37.117  23.859
1264.61  37.117  23.859
1265.11  37.053  23.859
1265.61  37.053  23.859
1266.11  37.181  23.828
1266.61  37.053  23.859
1267.11  37.181  23.889
1267.61  37.053  23.889
1268.11  37.181  23.859
1268.61  37.117  23.859
1269.11  37.181  23.828
1269.61  37.117  23.859
1270.11  37.117  23.828
1270.61  37.117  23.859
1271.11  37.053  23.859
1271.61  37.117  23.859
1272.11  37.117  23.889
1272.61  37.181  23.889
1273.11  37.181  23.859
1273.61  37.117  23.859
1274.11  37.117  23.859
1274.61  37.117  23.859
1275.11  37.181  23.859
1275.61  37.245  23.859
1276.11  37.181  23.889
1276.61  37.245  23.859
1277.11  37.117  23.859
1277.61  37.245  23.859
1278.11  37.181  23.859
1278.61  37.181  23.859
1279.11  37.181  23.859
1279.61  37.117  23.889
1280.11  37.181  23.859
1280.61  37.181  23.889
1281.11  37.117  23.859
1281.61  37.181  23.889
1282.11  37.181  23.859
1282.61  37.053  23.889
1283.11  37.245  23.859
1283.61  37.181  23.889
1284.11  37.181  23.889
1284.61  37.181  23.889
1285.11  37.181  23.859
1285.61  37.181  23.889
1286.11  37.181  23.859
1286.61  37.181  23.859
1287.11  37.181  23.889
1287.61  37.245  23.859
1288.11  37.245  23.889
1288.61  37.245  23.859
1289.11  37.181  23.859
1289.61  37.181  23.859
1290.11  37.181  23.859
1290.61  37.181  23.859
1291.11  37.181  23.828
1291.61  37.181  23.859
1292.11  37.181  23.889
1292.62  37.181  23.859
1293.12  37.181  23.859
1293.62  37.181  23.889
1294.12  37.181  23.828
1294.62  37.181  23.859
1295.12  37.245  23.859
1295.62  37.117  23.859
1296.12  37.181  23.859
1296.62  37.309  23.889
1297.12  37.181  23.889
1297.62  37.181  23.859
1298.12  37.117  23.889
1298.62  37.245  23.859
1299.12  37.181  23.920
1299.62  37.117  23.859
1300.12  37.245  23.859
1300.62  37.181  23.859
1301.12  37.181  23.859
1301.62  37.245  23.889
1302.12  37.245  23.859
1302.62  37.181  23.859
1303.12  37.181  23.859
1303.62  37.245  23.859
1304.12  37.245  23.920
1304.62  37.245  23.859
1305.12  37.309  23.828
1305.62  37.245  23.889
1306.12  37.309  23.828
1306.62  37.245  23.889
1307.12  37.245  23.889
1307.62  37.181  23.859
1308.12  37.181  23.889
1308.62  37.181  23.889
1309.12  37.245  23.889
1309.62  37.181  23.889
1310.12  37.245  23.828
1310.62  37.181  23.889
1311.12  37.245  23.889
1311.62  37.245  23.889
1312.12  37.245  23.889
1312.62  37.245  23.920
1313.12  37.245  23.859
1313.62  37.245  23.889
1314.12  37.245  23.889
1314.62  37.309  23.889
1315.12  37.245  23.889
1315.62  37.245  23.797
1316.12  37.245  23.889
1316.62  37.245  23.920
1317.12  37.309  23.859
1317.62  37.245  23.889
1318.12  37.309  23.889
1318.62  37.245  23.889
1319.12  37.181  23.889
1319.62  37.245  23.859
1320.12  37.309  23.889
1320.62  37.309  23.859
1321.12  37.245  23.889
1321.62  37.309  23.889
1322.12  37.245  23.859
1322.62  37.245  23.889
1323.12  37.245  23.889
1323.62  37.245  23.889
1324.12  37.309  23.889
1324.62  37.309  23.889
1325.12  37.309  23.859
1325.62  37.309  23.889
1326.12  37.309  23.920
1326.62  37.309  23.920
1327.12  37.245  23.889
1327.62  37.245  23.859
1328.12  37.309  23.889
1328.62  37.245  23.920
1329.12  37.309  23.920
1329.62  37.309  23.889
1330.12  37.245  23.889
1330.62  37.245  23.889
1331.12  37.309  23.920
1331.62  37.309  23.889
1332.12  37.309  23.920
1332.62  37.309  23.920
1333.12  37.309  23.889
1333.62  37.245  23.889
1334.12  37.245  23.859
1334.62  37.309  23.889
1335.12  37.309  23.889
1335.62  37.245  23.859
1336.12  37.245  23.889
1336.62  37.309  23.889
1337.12  37.309  23.889
1337.62  37.181  23.889
1338.12  37.245  23.889
1338.62  37.309  23.889
1339.12  37.245  23.889
1339.62  37.309  23.859
1340.12  37.309  23.889
1340.62  37.245  23.889
1341.12  37.309  23.859
1341.62  37.309  23.889
1342.12  37.181  23.889
1342.62  37.309  23.859
1343.12  37.309  23.889
1343.62  37.309  23.889
1344.12  37.309  23.920
1344.62  37.309  23.889
1345.12  37.309  23.859
1345.62  37.309  23.889
1346.12  37.309  23.889
1346.62  37.245  23.889
1347.12  37.309  23.859
1347.62  37.309  23.859
1348.12  37.309  23.859
1348.62  37.309  23.920
1349.12  37.309  23.889
1349.62  37.309  23.889
1350.12  37.373  23.889
1350.62  37.309  23.859
1351.12  37.437  23.859
1351.62  37.309  23.889
1352.12  37.373  23.859
1352.62  37.309  23.859
1353.12  37.373  23.889
1353.62  37.373  23.951
1354.12  37.373  23.889
1354.62  37.373  23.859
1355.12  37.309  23.889
1355.62  37.309  23.920
1356.12  37.309  23.889
1356.62  37.373  23.889
1357.12  37.373  23.889
1357.62  37.309  23.889
1358.12  37.245  23.889
1358.62  37.309  23.889
1359.12  37.309  23.889
1359.62  37.309  23.889
1360.12  37.309  23.920
1360.62  37.309  23.889
1361.12  37.373  23.859
1361.62  37.309  23.889
1362.12  37.245  23.859
1362.62  37.373  23.889
1363.12  37.309  23.889
1363.62  37.309  23.889
1364.12  37.309  23.889
1364.62  37.373  23.889
1365.12  37.373  23.889
1365.62  37.309  23.889
1366.12  37.373  23.889
1366.62  37.373  23.889
1367.12  37.309  23.859
1367.62  37.309  23.859
1368.12  37.309  23.920
1368.62  37.309  23.889
1369.12  37.373  23.859
1369.62  37.437  23.889
1370.12  37.245  23.889
1370.62  37.373  23.889
1371.12  37.245  23.889
1371.62  37.437  23.920
1372.12  37.373  23.889
1372.62  37.373  23.920
1373.12  37.437  23.828
1373.62  37.373  23.920
1374.12  37.437  23.920
1374.62  37.437  23.889
1375.12  37.437  23.951
1375.62  37.373  23.920
1376.12  37.373  23.951
1376.62  37.309  23.859
1377.12  37.245  23.889
1377.62  37.373  23.889
1378.12  37.373  23.889
1378.62  37.437  23.920
1379.12  37.373  23.889
1379.62  37.373  23.920
1380.12  37.309  23.859
1380.62  37.373  23.920
1381.12  37.373  23.920
1381.62  37.373  23.889
1382.12  37.437  23.920
1382.62  37.437  23.920
1383.12  37.373  23.920
1383.62  37.373  23.889
1384.12  37.373  23.889
1384.62  37.373  23.859
1385.12  37.373  23.889
1385.62  37.373  23.889
1386.12  37.373  23.889
1386.62  37.309  23.920
1387.12  37.373  23.889
1387.62  37.373  23.859
1388.12  37.373  23.920
1388.62  37.373  23.889
1389.12  37.373  23.828
1389.62  37.437  23.920
1390.12  37.373  23.859
1390.62  37.373  23.889
1391.12  37.437  23.920
1391.62  37.437  23.889
1392.12  37.373  23.889
1392.62  37.501  23.889
1393.12  37.309  23.889
1393.62  37.373  23.859
1394.12  37.437  23.951
1394.62  37.373  23.889
1395.12  37.373  23.920
1395.62  37.373  23.920
1396.12  37.373  23.920
1396.62  37.373  23.889
1397.12  37.437  23.920
1397.62  37.437  23.889
1398.12  37.437  23.951
1398.62  37.437  23.920
1399.12  37.373  23.920
1399.62  37.373  23.920
1400.12  37.437  23.889
1400.62  37.373  23.859
1401.12  37.501  23.951
1401.62  37.437  23.889
1402.12  37.373  23.920
1402.62  37.373  23.951
1403.12  37.309  23.889
1403.62  37.373  23.920
1404.12  37.437  23.889
1404.62  37.437  23.889
1405.12  37.373  23.889
1405.62  37.437  23.859
1406.12  37.373  23.889
1406.62  37.501  23.889
1407.12  37.245  23.889
1407.62  37.437  23.951
1408.12  37.437  23.889
1408.62  37.437  23.920
1409.12  37.437  23.889
1409.62  37.437  23.889
1410.12  37.373  23.920
1410.62  37.437  23.889
1411.12  37.373  23.889
1411.62  37.437  23.859
1412.12  37.501  23.889
1412.62  37.373  23.889
1413.12  37.501  23.920
1413.62  37.437  23.889
1414.12  37.373  23.920
1414.62  37.437  23.889
1415.12  37.437  23.951
1415.62  37.373  23.889
1416.12  37.373  23.920
1416.63  37.373  23.920
1417.13  37.437  23.920
1417.63  37.501  23.920
1418.13  37.437  23.920
1418.63  37.437  23.920
1419.13  37.501  23.920
1419.63  37.501  23.920
1420.13  37.437  23.889
1420.63  37.437  23.920
1421.13  37.565  23.889
1421.63  37.437  23.951
1422.13  37.373  23.920
1422.63  37.437  23.889
1423.13  37.501  23.889
1423.63  37.437  23.889
1424.13  37.437  23.889
1424.63  37.565  23.920
1425.13  37.501  23.920
1425.63  37.565  23.889
1426.13  37.437  23.920
1426.63  37.501  23.920
1427.13  37.437  23.951
1427.63  37.437  23.920
1428.13  37.437  23.920
1428.63  37.501  23.859
1429.13  37.501  23.889
1429.63  37.373  23.920
1430.13  37.437  23.889
1430.63  37.437  23.920
1431.13  37.501  23.889
1431.63  37.501  23.889
1432.13  37.565  23.920
1432.63  37.437  23.951
1433.13  37.437  23.889
1433.63  37.437  23.920
1434.13  37.501  23.859
1434.63  37.437  23.920
1435.13  37.501  23.920
1435.63  37.501  23.889
1436.13  37.501  23.920
1436.63  37.437  23.889
1437.13  37.501  23.889
1437.63  37.501  23.889
1438.13  37.501  23.920
1438.63  37.501  23.889
1439.13  37.565  23.920
1439.63  37.501  23.920
1440.13  37.437  23.920
1440.63  37.501  23.889
1441.13  37.565  23.920
1441.63  37.501  23.920
1442.13  37.501  23.920
1442.63  37.501  23.920
1443.13  37.501  23.982
1443.63  37.501  23.920
1444.13  37.437  23.920
1444.63  37.501  23.951
1445.13  37.501  23.920
1445.63  37.565  23.889
1446.13  37.437  23.920
1446.63  37.501  23.920
1447.13  37.501  23.920
1447.63  37.501  23.920
1448.13  37.501  23.920
1448.63  37.501  23.889
1449.13  37.565  23.920
1449.63  37.501  23.920
1450.13  37.501  23.920
1450.63  37.565  23.920
1451.13  37.565  23.920
1451.63  37.501  23.920
1452.13  37.565  23.920
1452.63  37.501  23.920
1453.13  37.501  23.920
1453.63  37.565  23.920
1454.13  37.437  23.920
1454.63  37.501  23.889
1455.13  37.565  23.889
1455.63  37.501  23.889
1456.13  37.501  23.920
1456.63  37.565  23.920
1457.13  37.501  23.920
1457.63  37.501  23.920
1458.13  37.565  23.920
1458.63  37.501  23.920
1459.13  37.565  23.920
1459.63  37.565  23.920
1460.13  37.501  23.920
1460.63  37.501  23.920
1461.13  37.501  23.920
1461.63  37.437  23.920
1462.13  37.565  23.920
1462.63  37.501  23.889
1463.13  37.565  23.920
1463.63  37.501  23.889
1464.13  37.565  23.951
1464.63  37.565  23.889
1465.13  37.501  23.920
1465.63  37.437  23.920
1466.13  37.437  23.920
1466.63  37.565  23.920
1467.13  37.501  23.920
1467.63  37.565  23.920
1468.13  37.501  23.920
1468.63  37.501  23.920
1469.13  37.565  23.889
1469.63  37.501  23.889
1470.13  37.501  23.889
1470.63  37.565  23.889
1471.13  37.565  23.889
1471.63  37.501  23.920
1472.13  37.565  23.920
1472.63  37.501  23.920
1473.13  37.565  23.889
1473.63  37.501  23.920
1474.13  37.565  23.920
1474.63  37.629  23.920
1475.13  37.437  23.889
1475.63  37.629  23.920
1476.13  37.501  23.920
1476.63  37.565  23.889
1477.13  37.501  23.920
1477.63  37.565  23.920
1478.13  37.565  23.951
1478.63  37.565  23.920
1479.13  37.501  23.920
1479.63  37.565  23.920
1480.13  37.565  23.951
1480.63  37.501  23.889
1481.13  37.821  23.889
1481.63  37.501  23.951
1482.13  37.565  23.920
1482.63  37.565  23.920
1483.13  37.565  23.920
1483.63  37.501  23.951
1484.13  37.501  23.982
1484.63  37.501  23.920
1485.13  37.565  23.920
1485.63  37.565  23.889
1486.13  37.629  23.920
1486.63  37.565  23.951
1487.13  37.565  23.920
1487.63  37.565  23.920
1488.13  37.565  23.889
1488.63  37.565  23.920
1489.13  37.565  23.889
1489.63  37.629  23.920
1490.13  37.629  23.920
1490.63  37.565  23.889
1491.13  37.501  23.951
1491.63  37.501  23.920
1492.13  37.501  23.920
1492.63  37.565  23.951
1493.13  37.565  23.951
1493.63  37.501  23.920
1494.13  37.565  23.920
1494.63  37.565  23.920
1495.13  37.501  23.889
1495.63  37.629  23.982
1496.13  37.565  23.920
1496.63  37.565  23.889
1497.13  37.565  23.920
1497.63  37.629  23.920
1498.13  37.501  23.920
1498.63  37.565  23.920
1499.13  37.565  23.889
1499.63  37.565  23.951
1500.13  37.565  23.920
1500.63  37.565  23.920
1501.13  37.565  23.951
1501.63  37.629  23.920
1502.13  37.757  23.920
1502.63  37.629  23.920
1503.13  37.629  23.951
1503.63  37.629  23.951
1504.13  37.629  23.920
1504.63  37.629  23.920
1505.13  37.501  23.920
1505.63  37.629  23.920
1506.13  37.565  23.889
1506.63  37.629  23.920
1507.13  37.629  23.951
1507.63  37.565  23.920
1508.13  37.565  23.920
1508.63  37.565  23.920
1509.13  37.565  23.889
1509.63  37.565  23.920
1510.13  37.629  23.951
1510.63  37.629  23.920
1511.13  37.629  23.920
1511.63  37.757  23.920
1512.13  37.565  23.920
1512.63  37.629  23.920
1513.13  37.629  23.951
1513.63  37.565  23.920
1514.13  37.693  23.920
1514.63  37.629  23.920
1515.13  37.693  23.920
1515.63  37.629  23.920
1516.13  37.629  23.920
1516.63  37.565  24.013
1517.13  37.629  23.859
1517.63  37.629  23.889
1518.13  37.629  23.920
1518.63  37.565  23.920
1519.13  37.565  23.920
1519.63  37.629  23.889
1520.13  37.565  23.889
1520.63  37.565  23.920
1521.13  37.629  23.920
1521.63  37.629  23.920
1522.13  37.565  23.920
1522.63  37.629  23.951
1523.13  37.629  23.920
1523.63  37.693  23.920
1524.13  37.629  23.920
1524.63  37.629  23.920
1525.13  37.629  23.982
1525.63  37.693  23.920
1526.13  37.629  23.951
1526.63  37.629  23.920
1527.13  37.629  23.951
1527.63  37.629  23.920
1528.13  37.565  23.920
1528.63  37.693  23.920
1529.13  37.629  23.920
1529.64  37.693  23.920
1530.14  37.629  23.920
1530.64  37.629  23.920
1531.14  37.629  23.920
1531.64  37.693  23.920
1532.14  37.629  23.920
1532.64  37.693  23.951
1533.14  37.757  23.951
1533.64  37.693  23.920
1534.14  37.565  23.951
1534.64  37.629  23.920
1535.14  37.693  23.920
1535.64  37.629  23.920
1536.14  37.629  23.951
1536.64  37.821  23.951
1537.14  37.693  23.920
1537.64  37.693  23.920
1538.14  37.629  23.920
1538.64  37.629  23.920
1539.14  37.693  23.920
1539.64  37.693  23.920
1540.14  37.629  23.951
1540.64  37.693  23.920
1541.14  37.629  23.951
1541.64  37.693  23.920
1542.14  37.565  23.920
1542.64  37.629  23.920
1543.14  37.693  23.920
1543.64  37.693  23.920
1544.14  37.629  24.013
1544.64  37.693  23.951
1545.14  37.629  23.920
1545.64  37.629  23.920
1546.14  37.693  23.951
1546.64  37.693  23.920
1547.14  37.629  23.920
1547.64  37.629  23.982
1548.14  37.757  23.951
1548.64  37.693  23.951
1549.14  37.693  23.920
1549.64  37.693  23.951
1550.14  37.629  23.889
1550.64  37.693  23.920
1551.14  37.693  23.951
1551.64  37.757  23.951
1552.14  37.693  23.889
1552.64  37.693  23.951
1553.14  37.693  23.951
1553.64  37.693  23.920
1554.14  37.693  23.951
1554.64  37.693  23.951
1555.14  37.693  23.951
1555.64  37.693  23.951
1556.14  37.693  23.951
1556.64  37.693  23.951
1557.14  37.629  23.951
1557.64  37.629  23.951
1558.14  37.757  23.951
1558.64  37.757  23.951
1559.14  37.693  23.951
1559.64  37.757  23.951
1560.14  37.693  23.920
1560.64  37.693  23.982
1561.14  37.757  23.951
1561.64  37.629  23.951
1562.14  37.693  23.920
1562.64  37.693  23.920
1563.14  37.757  23.951
1563.64  37.693  23.951
1564.14  37.693  23.920
1564.64  37.757  23.951
1565.14  37.821  23.951
1565.64  37.757  23.951
1566.14  37.693  23.920
1566.64  37.693  23.982
1567.14  37.693  23.951
1567.64  37.693  23.920
1568.14  37.693  23.951
1568.64  37.693  23.951
1569.14  37.757  23.951
1569.64  37.757  23.951
1570.14  37.693  23.982
1570.64  37.757  23.951
1571.14  37.693  23.951
1571.64  37.629  23.951
1572.14  37.693  23.951
1572.64  37.693  23.889
1573.14  37.757  23.920
1573.64  37.757  23.951
1574.14  37.693  23.951
1574.64  37.757  23.951
1575.14  37.693  23.920
1575.64  37.693  23.951
1576.14  37.821  23.951
1576.64  37.757  23.951
1577.14  37.693  23.951
1577.64  37.693  23.951
1578.14  37.693  23.982
1578.64  37.693  23.920
1579.14  37.693  23.951
1579.64  37.757  23.920
1580.14  37.629  23.920
1580.64  37.757  23.951
1581.14  37.757  23.951
1581.64  37.693  23.951
1582.14  37.693  23.951
1582.64  37.757  23.951
1583.14  37.757  23.951
1583.64  37.757  23.920
1584.14  37.693  23.951
1584.64  37.821  23.951
1585.14  37.757  23.951
1585.64  37.693  23.982
1586.14  37.821  23.889
1586.64  37.821  23.982
1587.14  37.757  23.982
1587.64  37.821  23.951
1588.14  37.757  23.951
1588.64  37.821  23.951
1589.14  37.885  23.951
1589.64  37.757  23.982
1590.14  37.757  23.951
1590.64  37.757  23.951
1591.14  37.693  23.951
1591.64  37.757  23.920
1592.14  37.757  23.951
1592.64  37.757  23.920
1593.14  37.757  23.951
1593.64  37.693  23.920
1594.14  37.757  23.951
1594.64  37.757  23.920
1595.14  37.757  23.951
1595.64  37.757  23.951
1596.14  37.757  23.951
1596.64  37.757  23.951
1597.14  37.821  23.889
1597.64  37.757  23.982
1598.14  37.693  23.982
1598.64  37.757  23.951
1599.14  37.693  23.920
1599.64  37.757  23.951
1600.14  37.757  23.951
1600.64  37.693  23.951
1601.14  37.693  23.951
1601.64  37.693  23.951
1602.14  37.821  23.951
1602.64  37.757  23.951
1603.14  37.757  23.951
1603.64  37.757  23.951
1604.14  37.821  23.889
1604.64  37.757  23.951
1605.14  37.821  23.920
1605.64  37.693  23.951
1606.14  37.693  23.982
1606.64  37.757  23.920
1607.14  37.757  23.920
1607.64  37.757  23.951
1608.14  37.757  23.951
1608.64  37.821  23.920
1609.14  37.757  23.951
1609.64  37.757  23.920
1610.14  37.757  23.951
1610.64  37.757  23.951
1611.14  37.693  23.920
1611.64  37.757  23.951
1612.14  37.821  23.982
1612.64  37.821  23.951
1613.14  37.757  23.920
1613.64  37.757  23.920
1614.14  37.821  23.951
1614.64  37.757  23.951
1615.14  37.757  23.951
1615.64  37.821  23.951
1616.14  37.757  23.951
1616.64  37.757  23.951
1617.14  37.693  23.951
1617.64  37.629  23.951
1618.14  37.821  23.951
1618.64  37.757  23.982
1619.14  37.757  23.982
1619.64  37.693  23.951
1620.14  37.757  23.951
1620.64  37.821  23.951
1621.14  37.821  23.951
1621.64  37.885  23.982
1622.14  37.821  23.951
1622.64  37.821  23.951
1623.14  37.821  23.951
1623.64  37.885  23.951
1624.14  37.821  23.951
1624.64  37.757  23.951
1625.14  37.757  23.920
1625.64  37.757  23.951
1626.14  37.757  23.951
1626.64  37.821  24.013
1627.14  37.757  23.951
1627.64  37.757  23.951
1628.14  37.757  23.951
1628.64  37.757  23.951
1629.14  37.821  23.951
1629.64  37.821  23.951
1630.14  37.757  23.951
1630.64  37.757  23.951
1631.14  37.821  23.982
1631.64  37.821  23.951
1632.14  37.821  23.951
1632.64  37.821  23.951
1633.14  37.885  23.951
1633.64  37.757  23.951
1634.14  37.821  23.951
1634.64  37.821  23.951
1635.14  37.821  23.982
1635.64  37.757  23.951
1636.14  37.821  24.013
1636.64  37.821  23.982
1637.14  37.693  23.951
1637.64  37.885  23.951
1638.14  37.757  23.951
1638.64  37.821  23.982
1639.14  37.821  23.951
1639.64  37.821  23.982
1640.14  37.821  23.951
1640.64  37.885  23.951
1641.14  37.885  23.982
1641.64  37.821  23.951
1642.14  37.821  23.982
1642.65  37.821  23.951
1643.15  37.821  23.951
1643.65  37.821  23.951
1644.15  37.821  23.951
1644.65  37.757  23.951
1645.15  37.821  23.951
1645.65  37.821  23.982
1646.15  37.821  23.951
1646.65  37.821  23.982
1647.15  37.821  23.982
1647.65  37.757  23.951
1648.15  37.757  23.951
1648.65  37.821  23.951
1649.15  37.757  23.920
1649.65  37.821  23.951
1650.15  37.821  23.951
1650.65  37.821  23.951
1651.15  37.885  23.982
1651.65  37.821  23.951
1652.15  37.757  23.951
1652.65  37.821  23.951
1653.15  37.821  23.982
1653.65  37.757  23.982
1654.15  37.885  23.982
1654.65  37.821  23.982
1655.15  37.885  23.982
1655.65  37.949  23.982
1656.15  37.757  23.951
1656.65  37.821  23.951
1657.15  37.885  23.951
1657.65  37.821  23.951
1658.15  37.757  24.013
1658.65  37.821  23.982
1659.15  37.821  23.951
1659.65  37.821  23.920
1660.15  37.821  23.951
1660.65  37.821  23.982
1661.15  37.885  23.982
1661.65  37.821  23.951
1662.15  37.821  23.982
1662.65  37.821  23.982
1663.15  37.949  23.982
1663.65  37.821  23.982
1664.15  37.949  24.013
1664.65  37.885  23.982
1665.15  37.821  23.982
1665.65  37.821  23.951
1666.15  37.885  23.982
1666.65  37.821  23.982
1667.15  37.821  23.982
1667.65  37.757  23.951
1668.15  37.821  23.951
1668.65  37.821  23.920
1669.15  37.821  23.951
1669.65  37.821  23.951
1670.15  37.885  23.951
1670.65  37.821  23.982
1671.15  37.821  23.982
1671.65  37.885  23.951
1672.15  37.885  23.982
1672.65  37.821  23.951
1673.15  37.885  23.982
1673.65  37.949  23.951
1674.15  37.885  23.951
1674.65  37.885  23.951
1675.15  37.821  23.951
1675.65  37.821  23.982
1676.15  37.821  23.982
1676.65  37.885  23.951
1677.15  37.885  23.951
1677.65  37.757  23.951
1678.15  37.885  23.982
1678.65  37.821  23.951
1679.15  37.885  23.951
1679.65  37.821  23.982
1680.15  37.821  23.982
1680.65  37.885  23.951
1681.15  37.885  24.013
1681.65  37.821  23.951
1682.15  37.821  23.982
1682.65  37.821  23.982
1683.15  37.885  23.951
1683.65  37.885  23.951
1684.15  37.885  23.982
1684.65  37.821  23.951
1685.15  37.821  23.982
1685.65  37.885  23.951
1686.15  37.885  23.982
1686.65  37.885  23.951
1687.15  37.885  23.951
1687.65  37.821  23.982
1688.15  37.885  23.920
1688.65  37.949  24.013
1689.15  37.885  23.982
1689.65  37.949  23.982
1690.15  37.757  23.951
1690.65  37.821  24.013
1691.15  37.949  24.013
1691.65  37.821  23.982
1692.15  37.949  23.982
1692.65  37.949  23.982
1693.15  37.949  24.013
1693.65  37.885  23.982
1694.15  37.885  23.982
1694.65  37.949  23.982
1695.15  37.885  23.951
1695.65  37.885  23.982
1696.15  37.949  23.982
1696.65  37.949  23.920
1697.15  37.821  24.013
1697.65  37.885  23.951
1698.15  37.885  23.982
1698.65  37.885  24.013
1699.15  37.885  23.982
1699.65  37.949  23.982
1700.15  37.885  23.982
1700.65  37.821  23.982
1701.15  37.885  23.951
1701.65  37.885  24.043
1702.15  37.949  23.982
1702.65  37.885  23.920
1703.15  37.885  23.982
1703.65  37.885  23.951
1704.15  37.885  23.982
1704.65  37.885  23.951
1705.15  37.885  23.982
1705.65  37.949  24.013
1706.15  37.949  23.982
1706.65  37.949  24.013
1707.15  37.885  23.982
1707.65  37.949  23.982
1708.15  37.885  23.982
1708.65  37.821  23.982
1709.15  37.885  23.951
1709.65  37.885  23.920
1710.15  37.885  23.951
1710.65  37.949  24.013
1711.15  37.949  23.951
1711.65  37.885  24.013
1712.15  37.949  23.951
1712.65  37.885  23.951
1713.15  37.949  24.013
1713.65  37.949  23.982
1714.15  38.077  23.982
1714.65  37.885  23.982
1715.15  37.885  23.920
1715.65  37.949  23.982
1716.15  37.885  23.982
1716.65  37.949  23.982
1717.15  37.949  23.982
1717.65  37.885  23.951
1718.15  37.885  23.982
1718.65  37.885  23.951
1719.15  37.885  23.951
1719.65  37.885  23.982
1720.15  37.885  24.013
1720.65  37.949  23.982
1721.15  37.885  23.951
1721.65  37.949  23.951
1722.15  37.949  23.982
1722.65  37.949  24.013
1723.15  37.949  24.013
1723.65  37.949  23.982
1724.15  37.821  23.982
1724.65  37.949  23.982
1725.15  37.885  23.982
1725.65  37.885  23.920
1726.15  37.821  23.951
1726.65  38.013  24.013
1727.15  37.949  23.982
1727.65  37.949  23.982
1728.15  37.949  23.982
1728.65  37.949  23.982
1729.15  37.949  24.013
1729.65  37.949  23.982
1730.15  37.949  23.982
1730.65  37.885  23.982
1731.15  37.949  23.951
1731.65  37.949  24.013
1732.15  37.949  23.982
1732.65  37.949  23.982
1733.15  37.949  23.951
1733.65  37.949  23.982
1734.15  37.885  23.982
1734.65  37.949  23.982
1735.15  37.949  23.982
1735.65  37.949  24.013
1736.15  37.949  23.982
1736.65  37.821  23.982
1737.15  37.885  23.982
1737.65  37.885  23.951
1738.15  37.949  23.982
1738.65  37.949  23.951
1739.15  37.949  23.982
1739.65  37.949  23.951
1740.15  37.949  23.951
1740.65  38.013  23.982
1741.15  37.885  23.982
1741.65  38.013  24.013
1742.15  37.949  24.043
1742.65  37.949  23.982
1743.15  37.885  23.982
1743.65  37.949  23.982
1744.15  37.885  23.982
1744.65  37.949  23.951
1745.15  37.885  23.951
1745.65  38.013  24.013
1746.15  37.949  23.982
1746.65  37.885  24.013
1747.15  37.885  23.982
1747.65  37.949  23.951
1748.15  37.949  23.951
1748.65  37.949  23.982
1749.15  37.949  23.982
1749.65  38.013  23.951
1750.15  38.013  24.013
1750.65  37.949  23.982
1751.15  38.013  23.982
1751.65  37.885  23.951
1752.15  37.885  23.982
1752.65  37.949  24.043
1753.15  37.949  23.982
1753.65  37.949  23.982
1754.15  37.949  24.013
1754.65  37.949  24.013
1755.15  37.949  24.013
1755.66  38.013  23.982
1756.16  37.949  24.013
1756.66  38.013  23.982
1757.16  37.949  23.982
1757.66  38.013  24.013
1758.16  37.949  23.982
1758.66  37.885  23.951
1759.16  37.949  24.013
1759.66  37.949  24.013
1760.16  38.013  24.013
1760.66  38.013  24.013
1761.16  37.949  23.951
1761.66  37.949  23.982
1762.16  37.949  24.013
1762.66  37.949  23.951
1763.16  38.013  23.951
1763.66  37.949  23.920
1764.16  37.949  23.982
1764.66  37.885  24.013
1765.16  38.077  24.013
1765.66  38.013  23.951
1766.16  38.013  24.013
1766.66  37.885  24.013
1767.16  37.949  23.982
1767.66  37.949  23.982
1768.16  37.949  24.013
1768.66  37.949  24.043
1769.16  38.013  24.013
1769.66  37.949  23.982
1770.16  37.949  23.982
1770.66  38.013  24.043
1771.16  38.013  23.951
1771.66  37.949  24.013
1772.16  37.949  23.982
1772.66  37.949  23.982
1773.16  37.949  24.013
1773.66  37.885  23.982
1774.16  38.013  24.013
1774.66  37.949  24.013
1775.16  38.013  24.013
1775.66  38.013  23.951
1776.16  38.077  23.982
1776.66  38.013  24.013
1777.16  37.949  24.013
1777.66  38.077  24.074
1778.16  37.949  23.951
1778.66  38.013  24.043
1779.16  38.013  23.951
1779.66  38.013  24.013
1780.16  38.077  24.013
1780.66  38.013  24.043
1781.16  38.013  24.013
1781.66  38.077  24.013
1782.16  38.013  24.013
1782.66  37.949  24.013
1783.16  38.013  24.013
1783.66  38.013  24.013
1784.16  38.013  24.043
1784.66  38.013  23.982
1785.16  38.013  24.013
1785.66  38.013  24.013
1786.16  37.949  24.013
1786.66  38.013  24.013
1787.16  38.013  24.013
1787.66  38.013  23.982
1788.16  38.077  24.043
1788.66  38.013  24.013
1789.16  38.013  23.982
1789.66  38.013  23.982
1790.16  38.013  23.982
1790.66  38.013  23.982
1791.16  38.013  23.951
1791.66  38.013  23.982
1792.16  37.949  24.013
1792.66  37.949  24.013
1793.16  37.949  23.982
1793.66  38.013  24.013
1794.16  38.077  24.043
1794.66  38.013  24.013
1795.16  38.013  24.013
1795.66  38.013  23.982
1796.16  38.013  24.013
1796.66  38.013  24.013
1797.16  38.013  23.982
1797.66  37.949  23.982
1798.16  38.077  23.982
1798.66  38.013  23.982
1799.16  38.077  24.013
1799.66  38.013  24.043
1800.16  37.949  24.013
1800.66  38.013  23.982
1801.16  38.013  24.013
1801.66  37.949  24.043
1802.16  38.013  24.043
1802.66  37.949  23.982
1803.16  38.013  23.982
1803.66  37.949  24.013
1804.16  38.013  24.013
1804.66  38.013  24.043
1805.16  38.077  24.013
1805.66  37.949  24.043
1806.16  37.949  24.013
1806.66  37.949  24.013
1807.16  38.013  24.013
1807.66  38.013  23.982
1808.16  38.141  24.013
1808.66  38.013  23.982
1809.16  37.949  24.013
1809.66  38.013  24.013
1810.16  38.013  24.013
1810.66  38.077  24.013
1811.16  38.077  24.013
1811.66  38.077  23.951
1812.16  37.949  24.013
1812.66  38.013  24.013
1813.16  38.013  23.982
1813.66  38.077  24.013
1814.16  38.013  24.043
1814.66  38.013  24.013
1815.16  38.013  24.013
1815.66  38.141  24.013
1816.16  38.077  24.013
1816.66  38.013  24.013
1817.16  38.013  24.043
1817.66  38.077  24.013
1818.16  38.013  24.013
1818.66  38.013  24.013
1819.16  38.077  24.043
1819.66  38.077  24.013
1820.16  38.077  23.920
1820.66  38.077  24.013
1821.16  37.949  23.982
1821.66  38.013  23.982
1822.16  38.013  24.013
1822.66  38.077  23.982
1823.16  38.013  24.013
1823.66  38.077  24.043
1824.16  38.077  24.013
1824.66  38.077  24.013
1825.16  38.013  24.013
1825.66  38.077  24.013
1826.16  38.205  23.951
1826.66  38.013  24.013
1827.16  37.949  24.013
1827.66  38.077  24.013
1828.16  38.013  24.043
1828.66  38.077  24.013
1829.16  38.077  24.013
1829.66  38.013  24.013
1830.16  38.077  24.013
1830.66  38.013  23.982
1831.16  38.077  24.013
1831.66  38.077  24.013
1832.16  38.013  24.013
1832.66  37.949  23.951
1833.16  38.077  24.043
1833.66  38.077  24.043
1834.16  38.077  24.013
1834.66  38.013  23.982
1835.16  38.077  24.013
1835.66  38.013  23.982
1836.16  38.077  24.043
1836.66  38.077  24.013
1837.16  38.077  24.043
1837.66  38.077  24.043
1838.16  38.077  23.982
1838.66  38.141  24.013
1839.16  38.013  24.013
1839.66  38.141  23.982
1840.16  38.013  24.013
1840.66  38.077  24.013
1841.16  38.013  24.013
1841.66  38.077  23.982
1842.16  38.013  24.013
1842.66  38.141  24.013
1843.16  38.013  23.982
1843.66  38.077  24.013
1844.16  38.141  24.013
1844.66  38.141  24.013
1845.16  38.077  24.013
1845.66  38.077  24.013
1846.16  38.077  24.043
1846.66  38.077  24.043
1847.16  38.141  23.951
1847.66  38.077  24.013
1848.16  38.077  24.043
1848.66  38.077  24.013
1849.16  38.013  24.013
1849.66  38.077  24.013
1850.16  38.077  24.013
1850.66  38.077  24.013
1851.16  38.077  24.013
1851.66  38.077  24.013
1852.16  38.077  24.043
1852.66  38.077  23.951
1853.16  38.077  24.013
1853.66  38.141  24.136
1854.16  38.077  24.043
1854.66  38.077  24.013
1855.16  38.013  24.013
1855.66  38.077  24.013
1856.16  38.013  24.013
1856.66  38.141  23.982
1857.16  38.077  24.043
1857.66  38.077  24.043
1858.16  38.077  24.043
1858.66  38.077  24.043
1859.16  38.077  24.013
1859.66  38.141  24.043
1860.16  38.077  24.043
1860.66  38.077  24.013
1861.16  38.141  23.982
1861.66  38.077  24.013
1862.16  38.077  24.043
1862.66  38.141  24.013
1863.16  38.077  23.982
1863.66  38.077  24.043
1864.16  38.077  24.074
1864.66  38.077  24.074
1865.16  38.077  23.982
1865.66  38.141  24.043
1866.16  38.141  24.013
1866.66  38.077  24.013
1867.16  38.077  24.043
1867.66  38.141  23.982
1868.16  38.077  24.013
1868.66  38.077  24.043
1869.17  38.077  24.043
1869.67  38.077  24.013
1870.17  38.077  24.013
1870.67  38.077  24.013
1871.17  38.077  24.043
1871.67  38.077  24.043
1872.17  38.077  23.982
1872.67  38.141  24.043
1873.17  38.141  24.013
1873.67  38.141  24.013
1874.17  38.141  24.013
1874.67  38.013  24.043
1875.17  38.077  24.013
1875.67  38.205  24.043
1876.17  38.141  24.043
1876.67  38.077  24.043
1877.17  38.077  24.013
1877.67  38.077  24.043
1878.17  38.141  24.013
1878.67  38.077  24.013
1879.17  38.077  24.013
1879.67  38.141  24.013
1880.17  38.077  24.013
1880.67  38.141  24.043
1881.17  38.141  24.043
1881.67  38.077  24.043
1882.17  38.205  24.043
1882.67  38.141  24.043
1883.17  38.141  24.013
1883.67  38.141  24.043
1884.17  38.077  24.013
1884.67  38.077  24.043
1885.17  38.077  24.013
1885.67  38.077  24.013
1886.17  38.141  24.043
1886.67  38.205  24.013
1887.17  38.141  24.074
1887.67  38.077  24.074
1888.17  38.205  24.013
1888.67  38.141  24.043
1889.17  38.077  24.013
1889.67  38.141  24.043
1890.17  38.205  24.043
1890.67  38.141  24.013
1891.17  38.077  24.013
1891.67  38.141  24.013
1892.17  38.141  24.013
1892.67  38.077  24.013
1893.17  38.141  24.043
1893.67  38.141  24.043
1894.17  38.077  24.043
1894.67  38.077  24.013
1895.17  38.205  24.043
1895.67  38.077  24.013
1896.17  38.077  23.982
1896.67  38.141  24.105
1897.17  38.077  24.013
1897.67  38.141  24.013
1898.17  38.141  23.982
1898.67  38.141  24.013
1899.17  38.141  24.013
1899.67  38.141  24.013
1900.17  38.141  24.013
1900.67  38.205  24.074
1901.17  38.141  24.013
1901.67  38.141  24.043
1902.17  38.141  24.043
1902.67  38.141  24.013
1903.17  38.077  24.043
1903.67  38.141  24.043
1904.17  38.141  24.043
1904.67  38.141  24.043
1905.17  38.141  24.043
1905.67  38.141  24.043
1906.17  38.141  24.043
1906.67  38.205  24.043
1907.17  38.141  24.013
1907.67  38.205  24.013
1908.17  38.141  24.074
1908.67  38.141  24.043
1909.17  38.077  24.013
1909.67  38.205  24.043
1910.17  38.205  24.043
1910.67  38.141  24.043
1911.17  38.141  24.043
1911.67  38.141  24.043
1912.17  38.077  24.043
1912.67  38.077  24.043
1913.17  38.141  24.013
1913.67  38.205  24.013
1914.17  38.205  24.043
1914.67  38.205  24.074
1915.17  38.141  24.043
1915.67  38.141  24.013
1916.17  38.141  24.013
1916.67  38.205  24.074
1917.17  38.077  24.013
1917.67  38.141  24.043
1918.17  38.141  24.043
1918.67  38.141  24.013
1919.17  38.205  24.043
1919.67  38.141  24.013
1920.17  38.141  24.013
1920.67  38.141  24.013
1921.17  38.141  24.043
1921.67  38.141  24.074
1922.17  38.141  24.043
1922.67  38.205  24.043
1923.17  38.205  24.013
1923.67  38.205  24.013
1924.17  38.141  24.013
1924.67  38.205  24.013
1925.17  38.141  24.013
1925.67  38.141  24.043
1926.17  38.141  24.074
1926.67  38.205  24.043
1927.17  38.141  24.013
1927.67  38.205  24.043
1928.17  38.141  23.982
1928.67  38.205  24.043
1929.17  38.141  24.043
1929.67  38.141  24.043
1930.17  38.077  24.043
1930.67  38.205  24.105
1931.17  38.141  24.043
1931.67  38.141  24.013
1932.17  38.141  24.043
1932.67  38.141  24.043
1933.17  38.269  24.043
1933.67  38.205  24.013
1934.17  38.141  24.074
1934.67  38.205  24.043
1935.17  38.077  24.043
1935.67  38.205  24.013
1936.17  38.141  24.013
1936.67  38.205  24.043
1937.17  38.205  24.013
1937.67  38.269  24.013
1938.17  38.205  24.013
1938.67  38.205  24.013
1939.17  38.205  24.043
1939.67  38.205  24.043
1940.17  38.141  24.043
1940.67  38.141  24.043
1941.17  38.205  24.043
1941.67  38.141  23.951
1942.17  38.141  24.013
1942.67  38.205  23.951
1943.17  38.205  24.013
1943.67  38.141  24.013
1944.17  38.077  24.043
1944.67  38.205  24.013
1945.17  38.141  24.043
1945.67  38.141  24.013
1946.17  38.205  24.074
1946.67  38.205  24.013
1947.17  38.205  24.074
1947.67  38.205  24.043
1948.17  38.205  24.043
1948.67  38.077  24.013
1949.17  38.141  24.043
1949.67  38.141  24.013
1950.17  38.205  24.074
1950.67  38.205  24.074
1951.17  38.141  24.013
1951.67  38.205  24.074
1952.17  38.269  24.043
1952.67  38.205  24.043
1953.17  38.205  24.043
1953.67  38.205  24.013
1954.17  38.205  24.013
1954.67  38.205  24.043
1955.17  38.269  24.043
1955.67  38.141  24.074
1956.17  38.141  24.013
1956.67  38.205  24.074
1957.17  38.269  24.043
1957.67  38.141  24.013
1958.17  38.205  24.043
1958.67  38.141  24.043
1959.17  38.269  24.043
1959.67  38.077  24.074
1960.17  38.205  24.043
1960.67  38.269  24.013
1961.17  38.205  24.074
1961.67  38.205  24.074
1962.17  38.269  24.013
1962.67  38.205  24.043
1963.17  38.205  24.074
1963.67  38.269  24.074
1964.17  38.205  24.074
1964.67  38.141  24.043
1965.17  38.269  24.043
1965.67  38.205  24.013
1966.17  38.205  24.043
1966.67  38.205  24.043
1967.17  38.205  24.043
1967.67  38.269  24.043
1968.17  38.141  24.043
1968.67  38.205  24.043
1969.17  38.141  24.043
1969.67  38.205  24.043
1970.17  38.141  24.043
1970.67  38.269  24.043
1971.17  38.333  24.013
1971.67  38.205  24.043
1972.17  38.205  24.013
1972.67  38.205  24.074
1973.17  38.269  24.043
1973.67  38.205  24.043
1974.17  38.205  24.074
1974.67  38.205  24.043
1975.17  38.141  24.013
1975.67  38.205  24.074
1976.17  38.205  24.043
1976.67  38.269  24.074
1977.17  38.205  24.074
1977.67  38.205  24.043
1978.17  38.205  24.043
1978.67  38.269  24.013
1979.17  38.269  24.043
1979.67  38.205  24.074
1980.17  38.205  24.043
1980.67  38.141  24.043
1981.17  38.205  24.043
1981.67  38.205  24.074
1982.18  38.205  24.074
1982.68  38.269  24.043
1983.18  38.269  24.043
1983.68  38.333  24.136
1984.18  38.205  24.043
1984.68  38.205  24.074
1985.18  38.333  24.013
1985.68  38.205  24.043
1986.18  38.205  24.043
1986.68  38.269  24.074
1987.18  38.205  24.074
1987.68  38.205  24.043
1988.18  38.205  24.043
1988.68  38.333  24.074
1989.18  38.269  24.074
1989.68  38.269  24.043
1990.18  38.269  24.074
1990.68  38.205  24.074
1991.18  38.269  24.074
1991.68  38.269  24.043
1992.18  38.269  24.043
1992.68  38.205  24.043
1993.18  38.205  24.074
1993.68  38.205  24.074
1994.18  38.333  24.105
1994.68  38.141  24.043
1995.18  38.205  24.043
1995.68  38.269  24.043
1996.18  38.205  24.043
1996.68  38.269  24.013
1997.18  38.269  24.074
1997.68  38.269  24.043
1998.18  38.269  24.074
1998.68  38.269  24.074
1999.18  38.205  24.043
1999.68  38.205  24.043
2000.18  38.205  24.043
2000.68  38.205  24.074
2001.18  38.269  24.043
2001.68  38.269  24.043
2002.18  38.205  24.074
2002.68  38.269  24.043
2003.18  38.205  24.043
2003.68  38.269  24.074
2004.18  38.205  24.043
2004.68  38.269  24.074
2005.18  38.269  24.074
2005.68  38.205  24.043
2006.18  38.205  24.074
2006.68  38.333  24.074
2007.18  38.269  24.043
2007.68  38.205  24.043
2008.18  38.205  24.043
2008.68  38.205  24.043
2009.18  38.205  24.074
2009.68  38.205  24.043
2010.18  38.269  24.043
2010.68  38.333  24.043
2011.18  38.269  24.043
2011.68  38.269  24.074
2012.18  38.269  24.013
2012.68  38.269  24.074
2013.18  38.205  24.074
2013.68  38.269  24.043
2014.18  38.205  24.043
2014.68  38.269  24.043
2015.18  38.269  24.074
2015.68  38.269  24.013
2016.18  38.269  24.013
2016.68  38.269  24.043
2017.18  38.269  24.043
2017.68  38.333  24.013
2018.18  38.205  24.105
2018.68  38.205  24.043
2019.18  38.269  24.043
2019.68  38.205  24.043
2020.18  38.269  24.043
2020.68  38.269  24.074
2021.18  38.269  24.043
2021.68  38.269  24.074
2022.18  38.205  24.043
2022.68  38.333  24.013
2023.18  38.269  24.043
2023.68  38.269  24.013
2024.18  38.205  24.043
2024.68  38.205  24.074
2025.18  38.269  24.105
2025.68  38.269  24.043
2026.18  38.269  24.043
2026.68  38.205  24.105
2027.18  38.269  24.105
2027.68  38.269  24.105
2028.18  38.269  24.074
2028.68  38.269  24.043
2029.18  38.333  24.074
2029.68  38.269  24.043
2030.18  38.269  24.043
2030.68  38.269  24.043
2031.18  38.205  24.043
2031.68  38.269  24.074
2032.18  38.269  24.074
2032.68  38.141  24.043
2033.18  38.269  24.074
2033.68  38.333  24.074
2034.18  38.269  24.074
2034.68  38.269  24.074
2035.18  38.333  24.043
2035.68  38.269  24.074
2036.18  38.269  23.982
2036.68  38.333  24.105
2037.18  38.269  24.043
2037.68  38.333  24.013
2038.18  38.269  24.074
2038.68  38.269  24.043
2039.18  38.333  24.043
2039.68  38.205  24.043
2040.18  38.269  24.074
2040.68  38.269  24.074
2041.18  38.333  24.074
2041.68  38.269  24.074
2042.18  38.333  24.043
2042.68  38.269  24.074
2043.18  38.269  24.013
2043.68  38.269  24.013
2044.18  38.269  24.074
2044.68  38.269  24.074
2045.18  38.333  24.043
2045.68  38.269  24.074
2046.18  38.205  24.043
2046.68  38.269  24.074
2047.18  38.205  24.105
2047.68  38.269  24.074
2048.18  38.333  24.074
2048.68  38.333  24.074
2049.18  38.269  24.013
2049.68  38.269  24.043
2050.18  38.333  24.074
2050.68  38.269  24.043
2051.18  38.269  24.043
2051.68  38.333  24.105
2052.18  38.269  24.074
2052.68  38.333  24.043
2053.18  38.205  24.074
2053.68  38.269  24.043
2054.18  38.333  24.043
2054.68  38.269  24.074
2055.18  38.269  24.074
2055.68  38.333  24.043
2056.18  38.269  24.074
2056.68  38.333  24.043
2057.18  38.269  24.074
2057.68  38.333  24.043
2058.18  38.333  24.043
2058.68  38.205  24.043
2059.18  38.269  24.043
2059.68  38.269  24.043
2060.18  38.269  24.043
2060.68  38.333  24.043
2061.18  38.269  24.043
2061.68  38.269  24.074
2062.18  38.269  24.074
2062.68  38.397  24.043
2063.18  38.269  24.074
2063.68  38.269  24.043
2064.18  38.269  24.043
2064.68  38.269  24.074
2065.18  38.269  24.043
2065.68  38.397  24.074
2066.18  38.333  24.105
2066.68  38.525  24.074
2067.18  38.269  24.074
2067.68  38.333  24.074
2068.18  38.333  24.074
2068.68  38.269  24.043
2069.18  38.269  24.074
2069.68  38.269  24.074
2070.18  38.269  24.043
2070.68  38.269  24.074
2071.18  38.269  24.043
2071.68  38.333  24.074
2072.18  38.333  24.074
2072.68  38.269  24.074
2073.18  38.269  24.043
2073.68  38.397  24.074
2074.18  38.333  24.074
2074.68  38.333  24.074
2075.18  38.269  24.043
2075.68  38.397  24.043
2076.18  38.269  24.074
2076.68  38.333  24.074
2077.18  38.333  24.043
2077.68  38.269  24.105
2078.18  38.333  24.074
2078.68  38.333  24.074
2079.18  38.269  24.074
2079.68  38.333  24.074
2080.18  38.333  24.074
2080.68  38.333  24.074
2081.18  38.333  24.105
2081.68  38.269  24.074
2082.18  38.333  24.074
2082.68  38.333  24.074
2083.18  38.333  24.074
2083.68  38.333  24.074
2084.18  38.333  24.074
2084.68  38.269  24.074
2085.18  38.397  24.043
2085.68  38.333  24.043
2086.18  38.269  24.043
2086.68  38.269  24.074
2087.18  38.269  24.074
2087.68  38.333  24.074
2088.18  38.333  24.074
2088.68  38.269  24.105
2089.18  38.269  24.074
2089.68  38.333  24.074
2090.18  38.397  24.074
2090.68  38.333  24.074
2091.18  38.333  24.074
2091.68  38.333  24.074
2092.18  38.269  24.043
2092.68  38.269  24.013
2093.18  38.269  24.074
2093.68  38.333  24.043
2094.18  38.333  24.074
2094.68  38.333  24.043
2095.19  38.333  24.074
2095.69  38.333  24.074
2096.19  38.269  24.043
2096.69  38.333  24.105
2097.19  38.333  24.074
2097.69  38.461  24.074
2098.19  38.397  24.074
2098.69  38.333  24.105
2099.19  38.269  24.074
2099.69  38.269  24.074
2100.19  38.333  24.074
2100.69  38.333  24.074
2101.19  38.333  24.074
2101.69  38.333  24.074
2102.19  38.333  24.074
2102.69  38.333  24.105
2103.19  38.333  24.074
2103.69  38.333  24.074
2104.19  38.269  24.074
2104.69  38.205  24.074
2105.19  38.333  24.074
2105.69  38.333  24.043
2106.19  38.333  24.074
2106.69  38.333  24.074
2107.19  38.525  24.074
2107.69  38.397  24.074
2108.19  38.333  24.043
2108.69  38.333  24.043
2109.19  38.397  24.074
2109.69  38.205  24.105
2110.19  38.333  24.074
2110.69  38.461  24.074
2111.19  38.333  24.074
2111.69  38.397  24.074
2112.19  38.269  24.043
2112.69  38.333  24.074
2113.19  38.333  24.043
2113.69  38.397  24.074
2114.19  38.333  24.074
2114.69  38.397  24.105
2115.19  38.397  24.074
2115.69  38.397  24.074
2116.19  38.333  24.105
2116.69  38.333  24.074
2117.19  38.397  24.074
2117.69  38.397  24.043
2118.19  38.397  24.105
2118.69  38.397  24.074
2119.19  38.333  24.105
2119.69  38.333  24.074
2120.19  38.397  24.074
2120.69  38.333  24.074
2121.19  38.397  24.074
2121.69  38.333  24.074
2122.19  38.333  24.074
2122.69  38.333  24.043
2123.19  38.333  24.074
2123.69  38.397  24.074
2124.19  38.269  24.105
2124.69  38.461  24.074
2125.19  38.333  24.105
2125.69  38.269  24.043
2126.19  38.333  24.105
2126.69  38.397  24.074
2127.19  38.397  24.074
2127.69  38.333  24.074
2128.19  38.333  24.074
2128.69  38.269  24.074
2129.19  38.397  24.074
2129.69  38.333  24.105
2130.19  38.333  24.043
2130.69  38.269  24.105
2131.19  38.333  24.105
2131.69  38.333  24.105
2132.19  38.397  24.105
2132.69  38.269  24.105
2133.19  38.397  24.105
2133.69  38.333  24.074
2134.19  38.461  24.074
2134.69  38.333  24.074
2135.19  38.397  24.105
2135.69  38.397  24.074
2136.19  38.397  24.043
2136.69  38.333  24.105
2137.19  38.333  24.105
2137.69  38.397  24.105
2138.19  38.333  24.074
2138.69  38.269  24.074
2139.19  38.333  24.105
2139.69  38.333  24.074
2140.19  38.333  24.043
2140.69  38.333  24.105
2141.19  38.397  24.074
2141.69  38.333  24.074
2142.19  38.333  24.074
2142.69  38.461  24.074
2143.19  38.397  24.136
2143.69  38.269  24.074
2144.19  38.397  24.043
2144.69  38.397  24.074
2145.19  38.397  24.074
2145.69  38.333  24.074
2146.19  38.333  24.074
2146.69  38.333  24.074
2147.19  38.397  24.074
2147.69  38.333  24.074
2148.19  38.397  24.074
2148.69  38.333  24.105
2149.19  38.333  24.074
2149.69  38.397  24.074
2150.19  38.397  24.074
2150.69  38.397  24.074
2151.19  38.461  24.043
2151.69  38.397  24.074
2152.19  38.397  24.074
2152.69  38.397  24.074
2153.19  38.333  24.074
2153.69  38.397  24.105
2154.19  38.461  24.074
2154.69  38.461  24.043
2155.19  38.397  24.105
2155.69  38.461  24.105
2156.19  38.397  24.074
2156.69  38.333  24.105
2157.19  38.525  24.074
2157.69  38.333  24.074
2158.19  38.397  24.105
2158.69  38.461  24.074
2159.19  38.397  24.105
2159.69  38.333  24.105
2160.19  38.397  24.105
2160.69  38.397  24.105
2161.19  38.397  24.074
2161.69  38.397  24.043
2162.19  38.397  24.074
2162.69  38.333  24.074
2163.19  38.333  24.074
2163.69  38.397  24.074
2164.19  38.461  24.074
2164.69  38.461  24.043
2165.19  38.333  24.013
2165.69  38.461  24.074
2166.19  38.397  24.074
2166.69  38.397  24.074
2167.19  38.397  24.043
2167.69  38.333  24.043
2168.19  38.397  24.074
2168.69  38.397  24.105
2169.19  38.397  24.105
2169.69  38.333  24.074
2170.19  38.461  24.074
2170.69  38.397  24.074
2171.19  38.397  24.105
2171.69  38.397  24.074
2172.19  38.333  24.043
2172.69  38.333  24.105
2173.19  38.397  24.074
2173.69  38.397  24.105
2174.19  38.461  24.074
2174.69  38.333  24.074
2175.19  38.397  24.105
2175.69  38.397  24.105
2176.19  38.397  24.105
2176.69  38.397  24.105
2177.19  38.397  24.074
2177.69  38.397  24.074
2178.19  38.397  24.074
2178.69  38.397  24.105
2179.19  38.397  24.074
2179.69  38.397  24.074
2180.19  38.397  24.105
2180.69  38.397  24.105
2181.19  38.333  24.105
2181.69  38.397  24.074
2182.19  38.333  24.136
2182.69  38.333  24.074
2183.19  38.461  24.074
2183.69  38.397  24.105
2184.19  38.333  24.074
2184.69  38.397  24.105
2185.19  38.461  24.105
2185.69  38.397  24.074
2186.19  38.461  24.074
2186.69  38.333  24.043
2187.19  38.397  24.105
2187.69  38.461  24.105
2188.19  38.461  24.136
2188.69  38.461  24.074
2189.19  38.333  24.105
2189.69  38.461  24.105
2190.19  38.397  24.105
2190.69  38.461  24.105
2191.19  38.397  24.105
2191.69  38.397  24.105
2192.19  38.397  24.074
2192.69  38.397  24.105
2193.19  38.397  24.043
2193.69  38.461  24.105
2194.19  38.461  24.074
2194.69  38.461  24.105
2195.19  38.397  24.105
2195.69  38.397  24.074
2196.19  38.461  24.105
2196.69  38.397  24.105
2197.19  38.397  24.074
2197.70  38.397  24.074
2198.20  38.397  24.074
2198.70  38.397  24.043
2199.20  38.397  24.105
2199.70  38.461  24.105
2200.20  38.333  24.105
2200.70  38.461  24.105
2201.20  38.461  24.074
2201.70  38.397  24.074
2202.20  38.525  24.105
2202.70  38.461  24.136
2203.20  38.397  24.105
2203.70  38.461  24.074
2204.20  38.461  24.074
2204.70  38.461  24.074
2205.20  38.397  24.074
2205.70  38.397  24.074
2206.20  38.397  24.136
2206.70  38.461  24.105
2207.20  38.461  24.074
2207.70  38.397  24.105
2208.20  38.397  24.105
2208.70  38.397  24.105
2209.20  38.397  24.105
2209.70  38.461  24.105
2210.20  38.397  24.074
2210.70  38.461  24.074
2211.20  38.525  24.105
2211.70  38.461  24.074
2212.20  38.397  24.105
2212.70  38.461  24.074
2213.20  38.461  24.105
2213.70  38.461  24.074
2214.20  38.461  24.105
2214.70  38.461  24.136
2215.20  38.397  24.105
2215.70  38.461  24.136
2216.20  38.397  24.074
2216.70  38.461  24.105
2217.20  38.461  24.105
2217.70  38.461  24.136
2218.20  38.397  24.105
2218.70  38.397  24.105
2219.20  38.397  24.105
2219.70  38.461  24.105
2220.20  38.397  24.105
2220.70  38.461  24.105
2221.20  38.397  24.105
2221.70  38.333  24.074
2222.20  38.461  24.074
2222.70  38.397  24.136
2223.20  38.461  24.074
2223.70  38.461  24.074
2224.20  38.397  24.105
2224.70  38.461  24.105
2225.20  38.525  24.074
2225.70  38.461  24.136
2226.20  38.397  24.105
2226.70  38.461  24.105
2227.20  38.461  24.136
2227.70  38.461  24.074
2228.20  38.461  24.074
2228.70  38.461  24.043
2229.20  38.397  24.105
2229.70  38.461  24.136
2230.20  38.461  24.105
2230.70  38.333  24.105
2231.20  38.461  24.074
2231.70  38.525  24.105
2232.20  38.461  24.136
2232.70  38.461  24.074
2233.20  38.461  24.136
2233.70  38.525  24.074
2234.20  38.397  24.074
2234.70  38.461  24.105
2235.20  38.461  24.105
2235.70  38.461  24.074
2236.20  38.461  24.105
2236.70  38.461  24.105
2237.20  38.461  24.074
2237.70  38.397  24.105
2238.20  38.397  24.105
2238.70  38.397  24.074
2239.20  38.461  24.136
2239.70  38.461  24.105
2240.20  38.461  24.105
2240.70  38.461  24.105
2241.20  38.525  24.105
2241.70  38.461  24.105
2242.20  38.461  24.136
2242.70  38.525  24.105
2243.20  38.461  24.105
2243.70  38.525  24.074
2244.20  38.461  24.074
2244.70  38.461  24.105
2245.20  38.525  24.167
2245.70  38.525  24.074
2246.20  38.461  24.105
2246.70  38.525  24.105
2247.20  38.461  24.136
2247.70  38.461  24.105
2248.20  38.397  24.136
2248.70  38.461  24.105
2249.20  38.461  24.105
2249.70  38.397  24.105
2250.20  38.525  24.105
2250.70  38.461  24.074
2251.20  38.525  24.074
2251.70  38.461  24.105
2252.20  38.525  24.043
2252.70  38.461  24.136
2253.20  38.397  24.074
2253.70  38.461  24.105
2254.20  38.525  24.136
2254.70  38.589  24.136
2255.20  38.525  24.105
2255.70  38.461  24.105
2256.20  38.461  24.105
2256.70  38.461  24.105
2257.20  38.269  24.074
2257.70  38.525  24.105
2258.20  38.461  24.074
2258.70  38.461  24.105
2259.20  38.525  24.105
2259.70  38.525  24.105
2260.20  38.525  24.105
2260.70  38.461  24.105
2261.20  38.525  24.136
2261.70  38.397  24.105
2262.20  38.333  24.105
2262.70  38.397  24.105
2263.20  38.461  24.105
2263.70  38.461  24.074
2264.20  38.461  24.105
2264.70  38.525  24.136
2265.20  38.525  24.105
2265.70  38.525  24.136
2266.20  38.461  24.074
2266.70  38.461  24.074
2267.20  38.525  24.136
2267.70  38.461  24.105
2268.20  38.461  24.105
2268.70  38.461  24.105
2269.20  38.397  24.074
2269.70  38.525  24.136
2270.20  38.525  24.105
2270.70  38.461  24.105
2271.20  38.461  24.105
2271.70  38.525  24.043
2272.20  38.461  24.167
2272.70  38.525  24.136
2273.20  38.461  24.105
2273.70  38.461  24.074
2274.20  38.525  24.074
2274.70  38.461  24.074
2275.20  38.461  24.105
2275.70  38.525  24.074
2276.20  38.461  24.105
2276.70  38.461  24.136
2277.20  38.461  24.105
2277.70  38.397  24.105
2278.20  38.461  24.136
2278.70  38.525  24.136
2279.20  38.461  24.105
2279.70  38.461  24.105
2280.20  38.525  24.074
2280.70  38.461  24.105
2281.20  38.461  24.105
2281.70  38.461  24.136
2282.20  38.525  24.105
2282.70  38.461  24.136
2283.20  38.525  24.074
2283.70  38.525  24.167
2284.20  38.397  24.136
2284.70  38.397  24.105
2285.20  38.525  24.074
2285.70  38.461  24.105
2286.20  38.525  24.136
2286.70  38.461  24.105
2287.20  38.461  24.136
2287.70  38.525  24.074
2288.20  38.525  24.105
2288.70  38.525  24.136
2289.20  38.525  24.136
2289.70  38.589  24.136
2290.20  38.397  24.136
2290.70  38.589  24.167
2291.20  38.589  24.105
2291.70  38.525  24.136
2292.20  38.525  24.136
2292.70  38.525  24.136
2293.20  38.525  24.136
2293.70  38.525  24.136
2294.20  38.525  24.105
2294.70  38.461  24.105
2295.20  38.525  24.105
2295.70  38.653  24.136
2296.20  38.525  24.105
2296.70  38.525  24.105
2297.20  38.525  24.136
2297.70  38.525  24.105
2298.20  38.525  24.074
2298.70  38.525  24.105
2299.20  38.525  24.136
2299.70  38.461  24.136
2300.20  38.525  24.136
2300.70  38.589  24.105
2301.20  38.461  24.074
2301.70  38.589  24.105
2302.20  38.525  24.136
2302.70  38.461  24.105
2303.20  38.461  24.105
2303.70  38.461  24.105
2304.20  38.525  24.105
2304.70  38.461  24.105
2305.20  38.525  24.105
2305.70  38.589  24.136
2306.20  38.461  24.105
2306.70  38.525  24.136
2307.20  38.525  24.105
2307.70  38.525  24.136
2308.20  38.525  24.136
2308.70  38.461  24.136
2309.20  38.461  24.136
2309.70  38.589  24.136
2310.20  38.589  24.136
2310.70  38.525  24.105
2311.20  38.525  24.136
2311.70  38.525  24.105
2312.20  38.525  24.105
2312.70  38.525  24.105
2313.20  38.589  24.136
2313.70  38.525  24.074
2314.20  38.461  24.136
2314.70  38.589  24.167
2315.20  38.525  24.105
2315.70  38.525  24.074
2316.20  38.525  24.136
2316.70  38.525  24.136
2317.20  38.525  24.105
2317.70  38.525  24.105
2318.20  38.525  24.136
2318.70  38.525  24.105
2319.20  38.525  24.105
2319.70  38.525  24.074
2320.20  38.589  24.136
2320.70  38.589  24.105
2321.20  38.525  24.105
2321.71  38.525  24.136
2322.21  38.525  24.105
2322.71  38.525  24.105
2323.21  38.589  24.105
2323.71  38.525  24.136
2324.21  38.525  24.105
2324.71  38.589  24.136
2325.21  38.589  24.074
2325.71  38.461  24.105
2326.21  38.589  24.105
2326.71  38.397  24.074
2327.21  38.525  24.136
2327.71  38.589  24.074
2328.21  38.525  24.136
2328.71  38.461  24.105
2329.21  38.589  24.105
2329.71  38.525  24.074
2330.21  38.589  24.136
2330.71  38.525  24.136
2331.21  38.525  24.105
2331.71  38.525  24.167
2332.21  38.589  24.136
2332.71  38.525  24.105
2333.21  38.525  24.136
2333.71  38.461  24.105
2334.21  38.525  24.136
2334.71  38.589  24.167
2335.21  38.525  24.105
2335.71  38.525  24.105
2336.21  38.461  24.136
2336.71  38.525  24.105
2337.21  38.525  24.105
2337.71  38.589  24.136
2338.21  38.525  24.136
2338.71  38.525  24.105
2339.21  38.589  24.105
2339.71  38.525  24.105
2340.21  38.589  24.136
2340.71  38.525  24.105
2341.21  38.525  24.105
2341.71  38.461  24.105
2342.21  38.525  24.136
2342.71  38.525  24.105
2343.21  38.525  24.105
2343.71  38.525  24.167
2344.21  38.525  24.105
2344.71  38.461  24.105
2345.21  38.461  24.136
2345.71  38.525  24.105
2346.21  38.525  24.136
2346.71  38.525  24.105
2347.21  38.525  24.167
2347.71  38.525  24.136
2348.21  38.525  24.105
2348.71  38.525  24.136
2349.21  38.589  24.136
2349.71  38.461  24.105
2350.21  38.589  24.074
2350.71  38.653  24.136
2351.21  38.589  24.136
2351.71  38.589  24.105
2352.21  38.525  24.136
2352.71  38.589  24.105
2353.21  38.589  24.136
2353.71  38.589  24.105
2354.21  38.717  24.228
2354.71  38.589  24.136
2355.21  38.653  24.167
2355.71  38.653  24.105
2356.21  38.525  24.074
2356.71  38.525  24.074
2357.21  38.461  24.167
2357.71  38.525  24.136
2358.21  38.525  24.136
2358.71  38.589  24.136
2359.21  38.589  24.136
2359.71  38.525  24.074
2360.21  38.589  24.136
2360.71  38.589  24.136
2361.21  38.525  24.136
2361.71  38.589  24.167
2362.21  38.589  24.136
2362.71  38.589  24.167
2363.21  38.589  24.136
2363.71  38.589  24.105
2364.21  38.525  24.136
2364.71  38.525  24.105
2365.21  38.589  24.136
2365.71  38.589  24.167
2366.21  38.589  24.136
2366.71  38.525  24.136
2367.21  38.589  24.136
2367.71  38.589  24.136
2368.21  38.525  24.105
2368.71  38.525  24.105
2369.21  38.653  24.136
2369.71  38.589  24.136
2370.21  38.525  24.136
2370.71  38.525  24.136
2371.21  38.525  24.105
2371.71  38.589  24.105
2372.21  38.525  24.136
2372.71  38.525  24.136
2373.21  38.589  24.105
2373.71  38.589  24.105
2374.21  38.589  24.136
2374.71  38.461  24.136
2375.21  38.589  24.136
2375.71  38.525  24.136
2376.21  38.589  24.105
2376.71  38.589  24.105
2377.21  38.589  24.105
2377.71  38.525  24.105
2378.21  38.589  24.136
2378.71  38.525  24.136
2379.21  38.525  24.105
2379.71  38.525  24.105
2380.21  38.525  24.074
2380.71  38.589  24.136
2381.21  38.589  24.105
2381.71  38.525  24.105
2382.21  38.525  24.105
2382.71  38.589  24.136
2383.21  38.525  24.136
2383.71  38.461  24.136
2384.21  38.589  24.167
2384.71  38.525  24.136
2385.21  38.525  24.136
2385.71  38.589  24.167
2386.21  38.525  24.105
2386.71  38.589  24.197
2387.21  38.589  24.136
2387.71  38.461  24.136
2388.21  38.589  24.136
2388.71  38.589  24.136
2389.21  38.525  24.136
2389.71  38.525  24.167
2390.21  38.589  24.136
2390.71  38.653  24.136
2391.21  38.653  24.136
2391.71  38.653  24.136
2392.21  38.589  24.105
2392.71  38.589  24.136
2393.21  38.589  24.105
2393.71  38.589  24.197
2394.21  38.589  24.136
2394.71  38.589  24.105
2395.21  38.525  24.105
2395.71  38.589  24.105
2396.21  38.525  24.136
2396.71  38.589  24.136
2397.21  38.589  24.167
2397.71  38.589  24.167
2398.21  38.589  24.136
2398.71  38.589  24.136
2399.21  38.589  24.197
2399.71  38.717  24.167
2400.21  38.589  24.105
2400.71  38.461  24.105
2401.21  38.589  24.136
2401.71  38.589  24.136
2402.21  38.525  24.136
2402.71  38.589  24.136
2403.21  38.589  24.136
2403.71  38.525  24.105
2404.21  38.653  24.136
2404.71  38.589  24.167
2405.21  38.589  24.136
2405.71  38.461  24.105
2406.21  38.589  24.136
2406.71  38.461  24.136
2407.21  38.589  24.136
2407.71  38.717  24.167
2408.21  38.589  24.136
2408.71  38.589  24.167
2409.21  38.653  24.105
2409.71  38.589  24.136
2410.21  38.653  24.136
2410.71  38.525  24.136
2411.21  38.461  24.136
2411.71  38.589  24.136
2412.21  38.653  24.105
2412.71  38.589  24.167
2413.21  38.653  24.105
2413.71  38.589  24.105
2414.21  38.653  24.136
2414.71  38.525  24.136
2415.21  38.525  24.167
2415.71  38.589  24.105
2416.21  38.525  24.136
2416.71  38.589  24.043
2417.21  38.589  24.136
2417.71  38.461  24.167
2418.21  38.589  24.105
2418.71  38.589  24.136
2419.21  38.653  24.136
2419.71  38.653  24.136
2420.21  38.589  24.136
2420.71  38.589  24.136
2421.21  38.589  24.136
2421.71  38.589  24.167
2422.21  38.589  24.136
2422.71  38.589  24.136
2423.21  38.589  24.136
2423.72  38.653  24.136
2424.22  38.589  24.136
2424.72  38.653  24.136
2425.22  38.589  24.136
2425.72  38.589  24.105
2426.22  38.589  24.105
2426.72  38.653  24.136
2427.22  38.717  24.136
2427.72  38.589  24.136
2428.22  38.589  24.136
2428.72  38.589  24.136
2429.22  38.589  24.136
2429.72  38.589  24.136
2430.22  38.653  24.136
2430.72  38.525  24.136
2431.22  38.589  24.136
2431.72  38.589  24.136
2432.22  38.717  24.136
2432.72  38.653  24.136
2433.22  38.589  24.167
2433.72  38.653  24.167
2434.22  38.589  24.167
2434.72  38.589  24.136
2435.22  38.589  24.136
2435.72  38.653  24.136
2436.22  38.589  24.136
2436.72  38.589  24.136
2437.22  38.589  24.197
2437.72  38.589  24.105
2438.22  38.589  24.105
2438.72  38.589  24.167
2439.22  38.589  24.136
2439.72  38.589  24.136
2440.22  38.589  24.136
2440.72  38.589  24.167
2441.22  38.653  24.167
2441.72  38.653  24.136
2442.22  38.589  24.136
2442.72  38.653  24.136
2443.22  38.589  24.136
2443.72  38.589  24.167
2444.22  38.653  24.136
2444.72  38.653  24.136
2445.22  38.589  24.197
2445.72  38.589  24.167
2446.22  38.653  24.105
2446.72  38.525  24.105
2447.22  38.589  24.136
2447.72  38.589  24.167
2448.22  38.653  24.167
2448.72  38.589  24.136
2449.22  38.653  24.197
2449.72  38.589  24.136
2450.22  38.589  24.136
2450.72  38.589  24.167
2451.22  38.589  24.167
2451.72  38.589  24.136
2452.22  38.589  24.167
2452.72  38.525  24.105
2453.22  38.589  24.136
2453.72  38.589  24.136
2454.22  38.653  24.136
2454.72  38.589  24.105
2455.22  38.653  24.136
2455.72  38.525  24.167
2456.22  38.589  24.167
2456.72  38.653  24.167
2457.22  38.653  24.136
2457.72  38.653  24.136
2458.22  38.525  24.136
2458.72  38.589  24.167
2459.22  38.653  24.136
2459.72  38.717  24.136
2460.22  38.589  24.105
2460.72  38.589  24.167
2461.22  38.589  24.136
2461.72  38.653  24.136
2462.22  38.589  24.136
2462.72  38.589  24.105
2463.22  38.653  24.043
2463.72  38.653  24.136
2464.22  38.653  24.136
2464.72  38.845  24.136
2465.22  38.653  24.136
2465.72  38.589  24.136
2466.22  38.717  24.105
2466.72  38.589  24.167
2467.22  38.589  24.167
2467.72  38.653  24.136
2468.22  38.525  24.136
2468.72  38.653  24.167
2469.22  38.589  24.136
2469.72  38.589  24.136
2470.22  38.653  24.167
2470.72  38.653  24.136
2471.22  38.717  24.167
2471.72  38.525  24.136
2472.22  38.589  24.167
2472.72  38.589  24.136
2473.22  38.589  24.167
2473.72  38.653  24.074
2474.22  38.653  24.167
2474.72  38.589  24.136
2475.22  38.589  24.136
2475.72  38.653  24.167
2476.22  38.653  24.167
2476.72  38.589  24.167
2477.22  38.589  24.105
2477.72  38.653  24.136
2478.22  38.653  24.136
2478.72  38.589  24.167
2479.22  38.653  24.167
2479.72  38.653  24.197
2480.22  38.589  24.167
2480.72  38.717  24.167
2481.22  38.653  24.167
2481.72  38.653  24.167
2482.22  38.653  24.167
2482.72  38.653  24.167
2483.22  38.653  24.136
2483.72  38.717  24.136
2484.22  38.589  24.197
2484.72  38.653  24.167
2485.22  38.653  24.136
2485.72  38.717  24.167
2486.22  38.653  24.197
2486.72  38.589  24.136
2487.22  38.589  24.167
2487.72  38.717  24.136
2488.22  38.653  24.167
2488.72  38.653  24.136
2489.22  38.589  24.136
2489.72  38.717  24.136
2490.22  38.653  24.136
2490.72  38.589  24.136
2491.22  38.653  24.167
2491.72  38.653  24.167
2492.22  38.653  24.167
2492.72  38.653  24.167
2493.22  38.589  24.136
2493.72  38.653  24.167
2494.22  38.589  24.197
2494.72  38.653  24.136
2495.22  38.653  24.136
2495.72  38.653  24.105
2496.22  38.717  24.136
2496.72  38.653  24.167
2497.22  38.653  24.167
2497.72  38.589  24.167
2498.22  38.717  24.197
2498.72  38.653  24.136
2499.22  38.653  24.167
2499.72  38.653  24.167
2500.22  38.653  24.167
2500.72  38.653  24.167
2501.22  38.653  24.167
2501.72  38.653  24.136
