   2.00  23.434  23.242
   2.50  23.408  23.242
   3.00  23.434  23.212
   3.50  23.408  23.212
   7.62  23.461  23.242
   8.12  23.408  23.212
   8.62  23.434  23.212
   9.12  23.434  23.242
   9.62  23.382  23.242
  10.12  23.408  23.242
  10.62  23.434  23.212
  11.12  23.408  23.212
  11.62  23.408  23.242
  12.12  23.408  23.212
  12.62  23.408  23.212
  13.12  23.408  23.242
  13.62  23.408  23.212
  14.12  23.434  23.242
  14.62  23.434  23.212
  15.12  23.434  23.242
  15.62  23.461  23.273
  16.12  23.461  23.242
  16.62  23.461  23.242
  17.12  23.461  23.212
  17.62  23.434  23.212
  18.12  23.487  23.273
  18.62  23.487  23.242
  19.12  23.487  23.212
  19.62  23.487  23.242
  20.12  23.487  23.242
  20.62  23.513  23.242
  21.12  23.487  23.212
  21.62  23.513  23.181
  22.12  23.513  23.242
  22.62  23.513  23.242
  23.12  23.513  23.212
  23.62  23.513  23.242
  24.12  23.539  23.242
  24.62  23.513  23.242
  25.12  23.513  23.242
  25.62  23.539  23.242
  26.12  23.539  23.242
  26.62  23.513  23.242
  27.12  23.539  23.242
  27.62  23.513  23.242
  28.12  23.487  23.242
  28.62  23.539  23.242
  29.12  23.539  23.273
  29.62  23.565  23.212
  30.12  23.539  23.273
  30.62  23.565  23.273
  31.12  23.539  23.242
  31.62  23.565  23.242
  32.12  23.565  23.212
  32.62  23.565  23.212
  33.12  23.565  23.242
  33.62  23.565  23.242
  34.12  23.565  23.242
  34.62  23.591  23.242
  35.12  23.617  23.212
  35.62  23.565  23.242
  36.12  23.591  23.273
  36.62  23.696  23.242
  37.12  23.565  23.242
  37.62  23.565  23.242
  38.12  23.565  23.181
  38.62  23.565  23.212
  39.12  23.617  23.181
  39.62  23.565  23.242
  40.12  23.591  23.212
  40.62  23.591  23.242
  41.12  23.617  23.212
  41.62  23.591  23.212
  42.12  23.617  23.242
  42.62  23.617  23.273
  43.12  23.617  23.212
  43.62  23.643  23.242
  44.12  23.617  23.242
  44.62  23.617  23.273
  45.12  23.643  23.273
  45.62  23.643  23.273
  46.12  23.617  23.273
  46.62  23.643  23.242
  47.12  23.617  23.212
  47.62  23.670  23.242
  48.12  23.643  23.242
  48.62  23.643  23.273
  49.12  23.643  23.304
  49.63  23.670  23.242
  50.13  23.696  23.242
  50.63  23.670  23.242
  51.13  23.670  23.242
  51.63  23.696  23.242
  52.13  23.670  23.273
  52.63  23.643  23.304
  53.13  23.696  23.242
  53.63  23.670  23.242
  54.13  23.670  23.242
  54.63  23.670  23.273
  55.13  23.670  23.273
  55.63  23.670  23.242
  56.13  23.670  23.212
  56.63  23.696  23.273
  57.13  23.696  23.242
  57.63  23.643  23.242
  58.13  23.722  23.273
  58.63  23.722  23.242
  59.13  23.722  23.242
  59.63  23.722  23.273
  60.13  23.696  23.242
  60.63  23.696  23.273
  61.13  23.722  23.242
  61.63  23.696  23.273
  62.13  23.722  23.242
  62.63  23.748  23.273
  63.13  23.748  23.273
  63.63  23.696  23.273
  64.13  23.696  23.273
  64.63  23.722  23.273
  65.13  23.722  23.242
  65.63  23.748  23.242
  66.13  23.748  23.273
  66.63  23.748  23.212
  67.13  23.748  23.304
  67.63  23.774  23.273
  68.13  23.748  23.273
  68.63  23.748  23.273
  69.13  23.774  23.273
  69.63  23.748  23.273
  70.13  23.774  23.242
  70.63  23.774  23.273
  71.13  23.774  23.273
  71.63  23.748  23.273
  72.13  23.774  23.242
  72.63  23.800  23.273
  73.13  23.774  23.242
  73.63  23.774  23.242
  74.13  23.800  23.273
  74.63  23.774  23.273
  75.13  23.800  23.212
  75.63  23.774  23.242
  76.13  23.774  23.273
  76.63  23.852  23.273
  77.13  23.800  23.273
  77.63  23.826  23.242
  78.13  23.800  23.304
  78.63  23.826  23.212
  79.13  23.800  23.273
  79.63  23.826  23.273
  80.13  23.826  23.242
  80.63  23.800  23.273
  81.13  23.826  23.273
  81.63  23.852  23.242
  82.13  23.800  23.273
  82.63  23.826  23.304
  83.13  23.852  23.273
  83.63  23.852  23.242
  84.13  23.878  23.273
  84.63  23.852  23.273
  85.13  23.852  23.242
  85.63  23.826  23.273
  86.13  23.878  23.273
  86.63  23.878  23.242
  87.13  23.852  23.273
  87.63  23.878  23.242
  88.13  23.878  23.242
  88.63  23.852  23.273
  89.13  23.878  23.304
  89.63  23.878  23.273
  90.13  23.905  23.242
  90.63  23.852  23.273
  91.13  23.905  23.304
  91.63  23.905  23.273
  92.13  23.878  23.273
  92.63  23.931  23.273
  93.13  23.931  23.242
  93.63  23.905  23.273
  94.13  23.931  23.273
  94.63  23.905  23.273
  95.13  23.905  23.273
  95.63  23.931  23.273
  96.13  23.905  23.273
  96.63  23.931  23.273
  97.13  23.957  23.273
  97.63  23.931  23.242
  98.13  23.957  23.273
  98.63  23.931  23.304
  99.13  23.957  23.273
  99.63  23.983  23.242
 100.13  23.931  23.273
 100.63  23.957  23.304
 101.13  23.957  23.273
 101.63  23.957  23.242
 102.13  23.957  23.242
 102.63  23.957  23.273
 103.13  23.983  23.273
 103.63  23.983  23.304
 104.13  23.983  23.273
 104.63  23.957  23.273
 105.13  23.983  23.304
 105.63  23.983  23.242
 106.13  24.009  23.273
 106.63  23.983  23.273
 107.13  24.009  23.304
 107.63  24.009  23.273
 108.13  24.009  23.304
 108.63  24.009  23.304
 109.13  23.983  23.273
 109.63  24.009  23.212
 110.13  24.009  23.304
 110.63  24.009  23.273
 111.13  24.035  23.273
 111.63  24.009  23.242
 112.13  24.035  23.273
 112.63  24.035  23.242
 113.13  24.035  23.304
 113.63  24.035  23.304
 114.13  24.035  23.304
 114.63  24.035  23.273
 115.13  24.035  23.304
 115.63  24.061  23.273
 116.13  24.061  23.273
 116.63  24.061  23.273
 117.13  24.061  23.304
 117.63  24.061  23.273
 118.13  24.087  23.304
 118.63  24.061  23.273
 119.13  24.061  23.273
 119.63  24.087  23.273
 120.13  24.061  23.242
 120.63  24.061  23.273
 121.13  24.087  23.304
 121.63  24.087  23.273
 122.13  24.087  23.273
 122.63  24.087  23.273
 123.13  24.113  23.273
 123.63  24.113  23.304
 124.13  24.113  23.304
 124.63  24.087  23.273
 125.13  24.113  23.273
 125.63  24.113  23.273
 126.13  24.113  23.273
 126.63  24.087  23.304
 127.13  24.140  23.273
 127.63  24.140  23.273
 128.13  24.113  23.273
 128.63  24.166  23.273
 129.13  24.113  23.273
 129.63  24.166  23.273
 130.13  24.166  23.273
 130.63  24.166  23.304
 131.13  24.140  23.273
 131.63  24.166  23.273
 132.13  24.140  23.273
 132.63  24.166  23.242
 133.13  24.166  23.242
 133.63  24.166  23.242
 134.13  24.166  23.242
 134.63  24.166  23.242
 135.13  24.166  23.273
 135.63  24.192  23.273
 136.13  24.166  23.304
 136.63  24.166  23.304
 137.13  24.218  23.304
 137.63  24.218  23.242
 138.13  24.218  23.304
 138.63  24.192  23.273
 139.13  24.218  23.273
 139.63  24.218  23.304
 140.13  24.218  23.304
 140.63  24.270  23.304
 141.13  24.218  23.273
 141.63  24.244  23.273
 142.13  24.270  23.273
 142.63  24.244  23.304
 143.13  24.244  23.273
 143.63  24.218  23.304
 144.13  24.244  23.304
 144.63  24.270  23.273
 145.13  24.270  23.335
 145.63  24.270  23.273
 146.13  24.270  23.273
 146.63  24.270  23.304
 147.13  24.244  23.304
 147.63  24.244  23.273
 148.13  24.270  23.273
 148.63  24.296  23.273
 149.13  24.270  23.273
 149.63  24.270  23.273
 150.13  24.270  23.304
 150.63  24.296  23.304
 151.13  24.296  23.273
 151.63  24.296  23.242
 152.13  24.296  23.304
 152.63  24.270  23.273
 153.13  24.322  23.304
 153.63  24.270  23.304
 154.13  24.322  23.273
 154.63  24.322  23.273
 155.13  24.322  23.335
 155.63  24.322  23.273
 156.13  24.348  23.273
 156.63  24.322  23.335
 157.13  24.348  23.304
 157.63  24.348  23.242
 158.13  24.375  23.273
 158.63  24.322  23.304
 159.13  24.375  23.304
 159.63  24.375  23.273
 160.13  24.348  23.304
 160.63  24.348  23.304
 161.13  24.348  23.304
 161.63  24.375  23.304
 162.13  24.375  23.304
 162.64  24.348  23.304
 163.14  24.401  23.273
 163.64  24.375  23.304
 164.14  24.375  23.304
 164.64  24.375  23.273
 165.14  24.401  23.273
 165.64  24.375  23.273
 166.14  24.401  23.273
 166.64  24.401  23.304
 167.14  24.375  23.273
 167.64  24.427  23.304
 168.14  24.401  23.273
 168.64  24.401  23.304
 169.14  24.427  23.304
 169.64  24.427  23.304
 170.14  24.427  23.273
 170.64  24.427  23.304
 171.14  24.453  23.242
 171.64  24.427  23.242
 172.14  24.479  23.273
 172.64  24.453  23.304
 173.14  24.453  23.273
 173.64  24.453  23.335
 174.14  24.479  23.304
 174.64  24.479  23.335
 175.14  24.479  23.304
 175.64  24.479  23.304
 176.14  24.479  23.304
 176.64  24.479  23.304
 177.14  24.453  23.304
 177.64  24.505  23.273
 178.14  24.479  23.304
 178.64  24.479  23.304
 179.14  24.479  23.273
 179.64  24.479  23.304
 180.14  24.505  23.304
 180.64  24.557  23.304
 181.14  24.479  23.273
 181.64  24.505  23.304
 182.14  24.479  23.304
 182.64  24.479  23.304
 183.14  24.479  23.273
 183.64  24.505  23.273
 184.14  24.505  23.304
 184.64  24.531  23.304
 185.14  24.531  23.304
 185.64  24.505  23.304
 186.14  24.531  23.304
 186.64  24.531  23.304
 187.14  24.531  23.304
 187.64  24.531  23.273
 188.14  24.531  23.304
 188.64  24.531  23.304
 189.14  24.531  23.304
 189.64  24.531  23.335
 190.14  24.531  23.304
 190.64  24.557  23.304
 191.14  24.557  23.304
 191.64  24.557  23.304
 192.14  24.557  23.304
 192.64  24.557  23.273
 193.14  24.583  23.304
 193.64  24.531  23.304
 194.14  24.557  23.304
 194.64  24.583  23.304
 195.14  24.557  23.335
 195.64  24.531  23.304
 196.14  24.531  23.273
 196.64  24.583  23.304
 197.14  24.583  23.304
 197.64  24.583  23.304
 198.14  24.610  23.273
 198.64  24.610  23.304
 199.14  24.610  23.242
 199.64  24.610  23.304
 200.14  24.583  23.335
 200.64  24.610  23.304
 201.14  24.583  23.304
 201.64  24.636  23.304
 202.14  24.636  23.335
 202.64  24.662  23.304
 203.14  24.610  23.304
 203.64  24.636  23.273
 204.14  24.610  23.335
 204.64  24.636  23.273
 205.14  24.662  23.273
 205.64  24.636  23.273
 206.14  24.636  23.273
 206.64  24.636  23.273
 207.14  24.636  23.304
 207.64  24.662  23.304
 208.14  24.662  23.304
 208.64  24.662  23.335
 209.14  24.662  23.304
 209.64  24.662  23.304
 210.14  24.688  23.273
 210.64  24.662  23.304
 211.14  24.688  23.273
 211.64  24.688  23.335
 212.14  24.688  23.304
 212.64  24.688  23.304
 213.14  24.688  23.335
 213.64  24.662  23.273
 214.14  24.662  23.242
 214.64  24.688  23.304
 215.14  24.688  23.335
 215.64  24.662  23.304
 216.14  24.714  23.304
 216.64  24.714  23.335
 217.14  24.688  23.304
 217.64  24.714  23.304
 218.14  24.662  23.335
 218.64  24.740  23.304
 219.14  24.714  23.273
 219.64  24.714  23.335
 220.14  24.714  23.304
 220.64  24.714  23.304
 221.14  24.740  23.304
 221.64  24.740  23.304
 222.14  24.740  23.273
 222.64  24.740  23.335
 223.14  24.766  23.335
 223.64  24.740  23.335
 224.14  24.740  23.304
 224.64  24.766  23.304
 225.14  24.766  23.335
 225.64  24.766  23.304
 226.14  24.766  23.304
 226.64  24.792  23.304
 227.14  24.766  23.304
 227.64  24.792  23.335
 228.14  24.792  23.304
 228.64  24.792  23.335
 229.14  24.792  23.335
 229.64  24.792  23.335
 230.14  24.792  23.335
 230.64  24.792  23.304
 231.14  24.792  23.304
 231.64  24.792  23.304
 232.14  24.766  23.304
 232.64  24.845  23.335
 233.14  24.766  23.304
 233.64  24.792  23.335
 234.14  24.819  23.304
 234.64  24.792  23.304
 235.14  24.845  23.335
 235.64  24.819  23.273
 236.14  24.819  23.335
 236.64  24.792  23.273
 237.14  24.819  23.304
 237.64  24.845  23.304
 238.14  24.819  23.304
 238.64  24.845  23.304
 239.14  24.845  23.304
 239.64  24.845  23.304
 240.14  24.845  23.304
 240.64  24.845  23.304
 241.14  24.845  23.366
 241.64  24.845  23.304
 242.14  24.845  23.304
 242.64  24.871  23.335
 243.14  24.871  23.335
 243.64  24.871  23.335
 244.14  24.845  23.304
 244.64  24.897  23.304
 245.14  24.871  23.304
 245.64  24.871  23.304
 246.14  24.897  23.304
 246.64  24.871  23.273
 247.14  24.897  23.273
 247.64  24.897  23.304
 248.14  24.949  23.304
 248.64  24.923  23.304
 249.14  24.897  23.366
 249.64  24.897  23.304
 250.14  24.897  23.304
 250.64  24.923  23.304
 251.14  24.897  23.335
 251.64  24.871  23.273
 252.14  24.897  23.304
 252.64  24.897  23.273
 253.14  24.871  23.304
 253.64  24.949  23.304
 254.14  24.923  23.304
 254.64  24.923  23.304
 255.14  24.923  23.273
 255.64  24.923  23.304
 256.14  24.949  23.304
 256.64  24.949  23.366
 257.14  24.897  23.304
 257.64  24.897  23.335
 258.14  24.949  23.304
 258.64  24.949  23.304
 259.14  24.923  23.304
 259.64  24.949  23.304
 260.14  24.975  23.304
 260.64  24.975  23.304
 261.14  24.975  23.304
 261.64  24.975  23.304
 262.14  24.949  23.273
 262.64  24.975  23.335
 263.14  24.975  23.273
 263.64  24.949  23.304
 264.14  24.949  23.335
 264.64  24.975  23.304
 265.14  24.949  23.304
 265.64  24.949  23.273
 266.14  24.975  23.335
 266.64  24.975  23.273
 267.14  24.975  23.273
 267.64  25.005  23.304
 268.14  25.005  23.273
 268.64  25.114  23.304
 269.14  25.114  23.304
 269.64  25.114  23.304
 270.14  24.975  23.366
 270.64  25.005  23.273
 271.14  24.975  23.304
 271.64  25.114  23.273
 272.14  25.114  23.304
 272.64  25.114  23.304
 273.14  25.005  23.335
 273.64  25.114  23.304
 274.14  25.114  23.335
 274.64  25.005  23.335
 275.14  25.114  23.304
 275.64  25.005  23.304
 276.15  25.114  23.304
 276.65  25.114  23.304
 277.15  25.114  23.335
 277.65  25.114  23.304
 278.15  25.114  23.304
 278.65  25.222  23.304
 279.15  25.114  23.273
 279.65  25.330  23.304
 280.15  25.330  23.304
 280.65  25.330  23.304
 281.15  25.222  23.304
 281.65  25.222  23.304
 282.15  25.330  23.366
 282.65  25.222  23.335
 283.15  25.222  23.304
 283.65  25.114  23.335
 284.15  25.330  23.304
 284.65  25.222  23.304
 285.15  25.330  23.304
 285.65  25.330  23.304
 286.15  25.438  23.304
 286.65  25.438  23.304
 287.15  25.330  23.335
 287.65  25.438  23.304
 288.15  25.438  23.335
 288.65  25.438  23.304
 289.15  25.438  23.304
 289.65  25.438  23.335
 290.15  25.547  23.335
 290.65  25.438  23.304
 291.15  25.547  23.335
 291.65  25.438  23.335
 292.15  25.547  23.304
 292.65  25.547  23.304
 293.15  25.547  23.304
 293.65  25.438  23.304
 294.15  25.763  23.304
 294.65  25.655  23.304
 295.15  25.438  23.273
 295.65  25.547  23.304
 296.15  25.547  23.335
 296.65  25.547  23.304
 297.15  25.547  23.335
 297.65  25.547  23.304
 298.15  25.655  23.273
 298.65  25.763  23.335
 299.15  25.547  23.335
 299.65  25.655  23.335
 300.15  25.655  23.304
 300.65  25.655  23.273
 301.15  25.655  23.304
 301.65  25.763  23.304
 302.15  25.763  23.335
 302.65  25.547  23.335
 303.15  25.655  23.304
 303.65  25.871  23.304
 304.15  25.655  23.366
 304.65  25.871  23.335
 305.15  25.763  23.273
 305.65  25.547  23.304
 306.15  25.763  23.304
 306.65  25.763  23.335
 307.15  25.763  23.335
 307.65  25.763  23.273
 308.15  25.871  23.335
 308.65  25.871  23.304
 309.15  25.871  23.273
 309.65  25.871  23.304
 310.15  25.655  23.273
 310.65  25.871  23.304
 311.15  25.871  23.273
 311.65  25.871  23.304
 312.15  25.980  23.304
 312.65  25.763  23.335
 313.15  25.871  23.304
 313.65  25.763  23.335
 314.15  25.980  23.304
 314.65  25.980  23.304
 315.15  25.980  23.335
 315.65  25.980  23.335
 316.15  25.980  23.335
 316.65  25.980  23.335
 317.15  26.088  23.304
 317.65  26.088  23.304
 318.15  25.980  23.304
 318.65  26.088  23.335
 319.15  26.088  23.335
 319.65  25.980  23.304
 320.15  26.088  23.304
 320.65  26.088  23.335
 321.15  26.088  23.335
 321.65  26.196  23.335
 322.15  25.980  23.335
 322.65  26.196  23.304
 323.15  26.196  23.335
 323.65  26.196  23.304
 324.15  26.196  23.335
 324.65  26.304  23.335
 325.15  26.196  23.335
 325.65  26.304  23.366
 326.15  26.304  23.366
 326.65  26.196  23.335
 327.15  26.088  23.335
 327.65  26.196  23.304
 328.15  26.196  23.304
 328.65  26.304  23.335
 329.15  26.413  23.335
 329.65  26.304  23.396
 330.15  26.304  23.304
 330.65  26.304  23.335
 331.15  26.413  23.335
 331.65  26.196  23.335
 332.15  26.088  23.304
 332.65  26.304  23.304
 333.15  26.413  23.304
 333.65  26.413  23.335
 334.15  26.196  23.304
 334.65  26.304  23.304
 335.15  26.521  23.335
 335.65  26.413  23.335
 336.15  26.304  23.335
 336.65  26.413  23.335
 337.15  26.413  23.366
 337.65  26.304  23.335
 338.15  26.521  23.366
 338.65  26.304  23.335
 339.15  26.413  23.335
 339.65  26.413  23.304
 340.15  26.304  23.304
 340.65  26.521  23.335
 341.15  26.521  23.366
 341.65  26.521  23.335
 342.15  26.304  23.304
 342.65  26.521  23.335
 343.15  26.629  23.335
 343.65  26.521  23.335
 344.15  26.521  23.304
 344.65  26.521  23.304
 345.15  26.629  23.335
 345.65  26.629  23.335
 346.15  26.521  23.304
 346.65  26.521  23.335
 347.15  26.629  23.273
 347.65  26.413  23.304
 348.15  26.629  23.366
 348.65  26.629  23.335
 349.15  26.521  23.335
 349.65  26.629  23.335
 350.15  26.629  23.335
 350.65  26.737  23.304
 351.15  26.629  23.366
 351.65  26.737  23.366
 352.15  26.629  23.335
 352.65  26.737  23.335
 353.15  26.629  23.304
 353.65  26.629  23.335
 354.15  26.521  23.273
 354.65  26.629  23.335
 355.15  26.737  23.335
 355.65  26.629  23.335
 356.15  26.846  23.335
 356.65  26.846  23.304
 357.15  26.629  23.304
 357.65  26.737  23.335
 358.15  26.737  23.304
 358.65  26.629  23.304
 359.15  26.846  23.366
 359.65  26.846  23.335
 360.15  26.846  23.335
 360.65  26.737  23.335
 361.15  26.737  23.273
 361.65  26.954  23.335
 362.15  26.846  23.335
 362.65  26.846  23.335
 363.15  26.846  23.335
 363.65  26.737  23.335
 364.15  26.846  23.366
 364.65  26.846  23.335
 365.15  26.846  23.335
 365.65  26.954  23.335
 366.15  27.062  23.396
 366.65  26.954  23.335
 367.15  27.062  23.427
 367.65  27.062  23.335
 368.15  26.846  23.335
 368.65  26.954  23.366
 369.15  27.062  23.304
 369.65  26.954  23.335
 370.15  26.954  23.366
 370.65  27.062  23.304
 371.15  26.954  23.273
 371.65  26.954  23.304
 372.15  26.954  23.304
 372.65  27.062  23.304
 373.15  27.062  23.335
 373.65  27.062  23.304
 374.15  27.062  23.366
 374.65  27.062  23.366
 375.15  27.062  23.304
 375.65  26.954  23.335
 376.15  27.279  23.335
 376.65  27.170  23.366
 377.15  27.062  23.335
 377.65  27.170  23.366
 378.15  27.170  23.335
 378.65  27.279  23.304
 379.15  27.062  23.335
 379.65  27.170  23.335
 380.15  27.170  23.335
 380.65  27.062  23.304
 381.15  27.170  23.335
 381.65  27.170  23.366
 382.15  27.062  23.335
 382.65  27.170  23.335
 383.15  27.062  23.335
 383.65  27.062  23.335
 384.15  27.170  23.335
 384.65  27.170  23.335
 385.15  27.170  23.366
 385.65  27.279  23.335
 386.15  27.279  23.366
 386.65  27.279  23.366
 387.15  27.170  23.335
 387.65  27.387  23.335
 388.15  27.279  23.396
 388.65  27.170  23.335
 389.16  27.170  23.304
 389.66  27.387  23.335
 390.16  27.387  23.335
 390.66  27.387  23.396
 391.16  27.279  23.335
 391.66  27.387  23.335
 392.16  27.387  23.335
 392.66  27.387  23.366
 393.16  27.495  23.335
 393.66  27.603  23.304
 394.16  27.387  23.335
 394.66  27.495  23.304
 395.16  27.387  23.304
 395.66  27.387  23.335
 396.16  27.495  23.335
 396.66  27.495  23.335
 397.16  27.712  23.366
 397.66  27.495  23.366
 398.16  27.495  23.335
 398.66  27.387  23.335
 399.16  27.495  23.335
 399.66  27.495  23.366
 400.16  27.495  23.366
 400.66  27.603  23.335
 401.16  27.495  23.396
 401.66  27.603  23.335
 402.16  27.603  23.366
 402.66  27.495  23.335
 403.16  27.603  23.304
 403.66  27.603  23.335
 404.16  27.495  23.366
 404.66  27.712  23.335
 405.16  27.712  23.335
 405.66  27.603  23.304
 406.16  27.495  23.335
 406.66  27.495  23.335
 407.16  27.603  23.366
 407.66  27.712  23.335
 408.16  27.820  23.304
 408.66  27.495  23.304
 409.16  27.712  23.335
 409.66  27.712  23.335
 410.16  27.712  23.304
 410.66  27.495  23.366
 411.16  27.712  23.366
 411.66  27.603  23.335
 412.16  27.712  23.366
 412.66  27.603  23.335
 413.16  28.036  23.335
 413.66  27.712  23.304
 414.16  27.712  23.335
 414.66  27.712  23.335
 415.16  27.712  23.335
 415.66  27.712  23.335
 416.16  28.145  23.366
 416.66  27.712  23.335
 417.16  27.820  23.335
 417.66  27.820  23.335
 418.16  27.712  23.335
 418.66  27.712  23.335
 419.16  27.820  23.335
 419.66  27.820  23.335
 420.16  27.820  23.335
 420.66  28.036  23.366
 421.16  27.820  23.304
 421.66  27.820  23.335
 422.16  27.820  23.335
 422.66  27.820  23.335
 423.16  27.928  23.335
 423.66  27.928  23.366
 424.16  27.712  23.335
 424.66  27.928  23.335
 425.16  27.928  23.366
 425.66  27.928  23.366
 426.16  27.820  23.335
 426.66  27.928  23.366
 427.16  27.928  23.335
 427.66  27.928  23.335
 428.16  27.928  23.366
 428.66  27.712  23.335
 429.16  28.036  23.335
 429.66  28.036  23.335
 430.16  28.036  23.335
 430.66  28.036  23.335
 431.16  27.820  23.304
 431.66  27.928  23.335
 432.16  27.928  23.304
 432.66  28.036  23.335
 433.16  28.145  23.335
 433.66  28.145  23.335
 434.16  28.145  23.273
 434.66  28.145  23.304
 435.16  28.036  23.335
 435.66  28.036  23.335
 436.16  27.928  23.335
 436.66  28.036  23.335
 437.16  28.145  23.335
 437.66  28.145  23.335
 438.16  28.145  23.366
 438.66  28.036  23.335
 439.16  28.036  23.335
 439.66  28.036  23.335
 440.16  28.036  23.335
 440.66  28.036  23.366
 441.16  28.253  23.335
 441.66  28.145  23.335
 442.16  28.145  23.366
 442.66  28.145  23.335
 443.16  28.145  23.366
 443.66  28.253  23.335
 444.16  28.145  23.335
 444.66  28.361  23.366
 445.16  28.145  23.335
 445.66  28.253  23.335
 446.16  28.145  23.366
 446.66  28.253  23.335
 447.16  28.145  23.335
 447.66  28.361  23.335
 448.16  28.253  23.335
 448.66  28.361  23.335
 449.16  28.253  23.366
 449.66  28.361  23.335
 450.16  28.361  23.366
 450.66  28.253  23.366
 451.16  28.253  23.427
 451.66  28.253  23.335
 452.16  28.145  23.335
 452.66  28.253  23.335
 453.16  28.469  23.396
 453.66  28.361  23.366
 454.16  28.686  23.304
 454.66  28.469  23.335
 455.16  28.469  23.366
 455.66  28.253  23.366
 456.16  28.469  23.304
 456.66  28.361  23.366
 457.16  28.361  23.366
 457.66  28.361  23.366
 458.16  28.469  23.366
 458.66  28.578  23.366
 459.16  28.469  23.366
 459.66  28.361  23.366
 460.16  28.469  23.396
 460.66  28.469  23.335
 461.16  28.469  23.366
 461.66  28.469  23.335
 462.16  28.469  23.366
 462.66  28.361  23.335
 463.16  28.578  23.335
 463.66  28.469  23.366
 464.16  28.469  23.396
 464.66  28.578  23.335
 465.16  28.686  23.366
 465.66  28.469  23.396
 466.16  28.686  23.366
 466.66  28.578  23.366
 467.16  28.578  23.366
 467.66  28.686  23.335
 468.16  28.578  23.366
 468.66  28.469  23.366
 469.16  28.686  23.335
 469.66  28.578  23.427
 470.16  28.686  23.304
 470.66  28.578  23.396
 471.16  28.902  23.366
 471.66  28.794  23.366
 472.16  28.578  23.366
 472.66  28.686  23.366
 473.16  28.794  23.366
 473.66  28.578  23.366
 474.16  28.578  23.366
 474.66  28.794  23.335
 475.16  28.686  23.396
 475.66  29.011  23.335
 476.16  28.686  23.366
 476.66  28.686  23.366
 477.16  28.794  23.366
 477.66  28.794  23.366
 478.16  28.794  23.366
 478.66  28.578  23.366
 479.16  28.686  23.335
 479.66  28.686  23.335
 480.16  28.794  23.366
 480.66  28.686  23.366
 481.16  28.686  23.335
 481.66  28.794  23.366
 482.16  28.794  23.366
 482.66  28.902  23.335
 483.16  28.794  23.335
 483.66  28.578  23.366
 484.16  28.902  23.366
 484.66  28.794  23.396
 485.16  28.794  23.366
 485.66  28.794  23.366
 486.16  28.794  23.366
 486.66  28.794  23.335
 487.16  28.902  23.366
 487.66  28.902  23.366
 488.16  28.902  23.335
 488.66  28.902  23.366
 489.16  28.902  23.335
 489.66  28.902  23.366
 490.16  28.902  23.366
 490.66  28.902  23.335
 491.17  28.902  23.366
 491.67  29.011  23.396
 492.17  29.011  23.366
 492.67  28.902  23.396
 493.17  28.794  23.366
 493.67  28.902  23.396
 494.17  28.902  23.366
 494.67  28.902  23.366
 495.17  28.902  23.335
 495.67  29.011  23.366
 496.17  29.011  23.366
 496.67  29.011  23.366
 497.17  29.011  23.335
 497.67  28.902  23.366
 498.17  29.011  23.335
 498.67  28.686  23.335
 499.17  29.119  23.335
 499.67  29.011  23.366
 500.17  29.119  23.396
 500.67  28.902  23.366
 501.17  29.011  23.304
 501.67  28.902  23.366
 502.17  29.119  23.366
 502.67  29.119  23.366
 503.17  29.011  23.335
 503.67  29.119  23.335
 504.17  28.902  23.335
 504.67  29.119  23.366
 505.17  29.119  23.366
 505.67  29.119  23.335
 506.17  29.011  23.396
 506.67  29.227  23.396
 507.17  29.119  23.335
 507.67  29.227  23.335
 508.17  29.011  23.366
 508.67  29.119  23.366
 509.17  29.011  23.335
 509.67  29.227  23.366
 510.17  29.119  23.366
 510.67  29.119  23.427
 511.17  29.227  23.366
 511.67  29.227  23.366
 512.17  29.227  23.335
 512.67  29.119  23.396
 513.17  29.227  23.366
 513.67  29.227  23.366
 514.17  29.011  23.366
 514.67  29.119  23.366
 515.17  29.227  23.366
 515.67  29.227  23.335
 516.17  29.335  23.335
 516.67  29.335  23.396
 517.17  29.227  23.366
 517.67  29.011  23.396
 518.17  29.011  23.366
 518.67  29.335  23.366
 519.17  29.335  23.273
 519.67  29.335  23.366
 520.17  29.227  23.396
 520.67  29.335  23.335
 521.17  29.227  23.366
 521.67  29.335  23.366
 522.17  29.335  23.366
 522.67  29.227  23.396
 523.17  29.552  23.366
 523.67  29.227  23.366
 524.17  29.335  23.366
 524.67  29.335  23.396
 525.17  29.335  23.335
 525.67  29.444  23.366
 526.17  29.335  23.366
 526.67  29.444  23.366
 527.17  29.444  23.366
 527.67  29.335  23.366
 528.17  29.552  23.396
 528.67  29.227  23.335
 529.17  29.227  23.366
 529.67  29.335  23.396
 530.17  29.444  23.335
 530.67  29.444  23.335
 531.17  29.444  23.396
 531.67  29.444  23.366
 532.17  29.552  23.335
 532.67  29.444  23.396
 533.17  29.444  23.366
 533.67  29.335  23.366
 534.17  29.552  23.396
 534.67  29.444  23.335
 535.17  29.335  23.396
 535.67  29.552  23.366
 536.17  29.444  23.366
 536.67  29.552  23.427
 537.17  29.444  23.366
 537.67  29.552  23.366
 538.17  29.444  23.335
 538.67  29.444  23.366
 539.17  29.444  23.396
 539.67  29.444  23.366
 540.17  29.660  23.366
 540.67  29.552  23.366
 541.17  29.444  23.335
 541.67  29.552  23.335
 542.17  29.552  23.304
 542.67  29.552  23.366
 543.17  29.660  23.366
 543.67  29.660  23.335
 544.17  29.768  23.366
 544.67  29.552  23.366
 545.17  29.552  23.366
 545.67  29.552  23.396
 546.17  29.660  23.427
 546.67  29.660  23.396
 547.17  29.768  23.366
 547.67  29.660  23.396
 548.17  29.660  23.366
 548.67  29.552  23.366
 549.17  29.768  23.335
 549.67  29.660  23.396
 550.17  29.552  23.396
 550.67  29.768  23.366
 551.17  29.660  23.366
 551.67  29.660  23.335
 552.17  29.660  23.366
 552.67  29.660  23.366
 553.17  29.768  23.366
 553.67  29.660  23.366
 554.17  29.768  23.335
 554.67  29.660  23.396
 555.17  29.660  23.366
 555.67  29.552  23.396
 556.17  29.768  23.366
 556.67  29.660  23.366
 557.17  29.660  23.366
 557.67  29.660  23.396
 558.17  29.660  23.366
 558.67  29.877  23.396
 559.17  29.768  23.335
 559.67  29.660  23.335
 560.17  29.768  23.396
 560.67  29.768  23.366
 561.17  29.768  23.396
 561.67  29.877  23.396
 562.17  29.877  23.366
 562.67  29.877  23.396
 563.17  29.877  23.366
 563.67  29.877  23.396
 564.17  29.877  23.396
 564.67  29.877  23.396
 565.17  29.985  23.335
 565.67  29.877  23.396
 566.17  29.768  23.366
 566.67  29.877  23.366
 567.17  29.877  23.366
 567.67  29.985  23.366
 568.17  29.768  23.366
 568.67  29.877  23.396
 569.17  29.985  23.366
 569.67  29.985  23.427
 570.17  29.877  23.396
 570.67  29.985  23.366
 571.17  29.985  23.427
 571.67  29.877  23.427
 572.17  29.877  23.366
 572.67  29.985  23.366
 573.17  29.985  23.396
 573.67  29.985  23.335
 574.17  29.985  23.366
 574.67  29.985  23.396
 575.17  29.985  23.366
 575.67  29.985  23.366
 576.17  30.101  23.396
 576.67  29.985  23.366
 577.17  29.985  23.396
 577.67  30.101  23.396
 578.17  29.985  23.396
 578.67  29.985  23.366
 579.17  29.985  23.427
 579.67  29.985  23.366
 580.17  30.101  23.366
 580.67  30.101  23.366
 581.17  30.101  23.396
 581.67  29.985  23.335
 582.17  30.101  23.366
 582.67  30.101  23.458
 583.17  30.101  23.396
 583.67  30.101  23.366
 584.17  29.985  23.335
 584.67  30.217  23.366
 585.17  30.101  23.396
 585.67  29.877  23.366
 586.17  30.101  23.366
 586.67  30.101  23.396
 587.17  29.985  23.458
 587.67  29.985  23.396
 588.17  30.101  23.396
 588.67  29.985  23.335
 589.17  30.101  23.458
 589.67  30.101  23.366
 590.17  30.334  23.396
 590.67  30.217  23.366
 591.17  30.101  23.396
 591.67  30.101  23.366
 592.17  30.217  23.396
 592.67  30.217  23.366
 593.17  30.334  23.366
 593.67  30.101  23.396
 594.17  30.101  23.366
 594.67  30.217  23.366
 595.17  30.217  23.366
 595.67  30.217  23.366
 596.17  30.217  23.396
 596.67  30.217  23.366
 597.17  30.217  23.427
 597.67  30.334  23.396
 598.17  30.217  23.335
 598.67  30.217  23.396
 599.17  30.451  23.366
 599.67  30.101  23.396
 600.17  30.217  23.396
 600.67  30.334  23.335
 601.17  30.334  23.396
 601.67  30.217  23.366
 602.17  30.217  23.427
 602.67  30.217  23.366
 603.17  30.334  23.396
 603.67  30.451  23.366
 604.17  30.334  23.396
 604.67  30.217  23.396
 605.17  30.451  23.396
 605.67  30.334  23.396
 606.17  30.334  23.396
 606.67  30.217  23.427
 607.17  30.334  23.427
 607.67  30.334  23.396
 608.17  30.451  23.366
 608.67  30.334  23.396
 609.17  30.451  23.366
 609.67  30.334  23.366
 610.17  30.334  23.427
 610.67  30.101  23.396
 611.17  30.334  23.396
 611.67  30.334  23.396
 612.17  30.451  23.396
 612.67  30.334  23.396
 613.17  30.451  23.366
 613.67  30.334  23.396
 614.17  30.334  23.396
 614.67  30.451  23.396
 615.17  30.451  23.396
 615.68  30.217  23.396
 616.18  30.451  23.366
 616.68  30.451  23.427
 617.18  30.451  23.396
 617.68  30.334  23.366
 618.18  30.334  23.366
 618.68  30.451  23.396
 619.18  30.334  23.458
 619.68  30.568  23.396
 620.18  30.451  23.366
 620.68  30.568  23.427
 621.18  30.568  23.427
 621.68  30.568  23.366
 622.18  30.451  23.366
 622.68  30.568  23.396
 623.18  30.685  23.427
 623.68  30.568  23.427
 624.18  30.568  23.427
 624.68  30.568  23.396
 625.18  30.451  23.396
 625.68  30.451  23.335
 626.18  30.568  23.396
 626.68  30.451  23.396
 627.18  30.685  23.396
 627.68  30.334  23.366
 628.18  30.568  23.366
 628.68  30.568  23.427
 629.18  30.568  23.396
 629.68  30.568  23.396
 630.18  30.568  23.396
 630.68  30.685  23.427
 631.18  30.685  23.396
 631.68  30.802  23.366
 632.18  30.568  23.396
 632.68  30.685  23.396
 633.18  30.568  23.427
 633.68  30.802  23.396
 634.18  30.685  23.396
 634.68  30.568  23.396
 635.18  30.685  23.396
 635.68  30.685  23.396
 636.18  30.685  23.366
 636.68  30.685  23.396
 637.18  30.685  23.396
 637.68  30.685  23.396
 638.18  30.802  23.396
 638.68  30.685  23.366
 639.18  30.685  23.396
 639.68  30.685  23.396
 640.18  30.685  23.396
 640.68  30.802  23.396
 641.18  30.685  23.396
 641.68  30.802  23.366
 642.18  30.685  23.396
 642.68  30.685  23.427
 643.18  30.802  23.427
 643.68  30.685  23.396
 644.18  30.802  23.396
 644.68  30.802  23.396
 645.18  30.685  23.396
 645.68  30.802  23.366
 646.18  30.685  23.396
 646.68  30.802  23.335
 647.18  30.802  23.427
 647.68  30.802  23.396
 648.18  30.802  23.366
 648.68  30.802  23.396
 649.18  30.685  23.366
 649.68  30.802  23.396
 650.18  30.802  23.427
 650.68  30.919  23.396
 651.18  30.802  23.335
 651.68  30.802  23.396
 652.18  30.919  23.396
 652.68  30.802  23.396
 653.18  30.802  23.396
 653.68  30.802  23.396
 654.18  30.802  23.396
 654.68  30.802  23.396
 655.18  30.919  23.396
 655.68  30.802  23.427
 656.18  30.802  23.396
 656.68  30.919  23.396
 657.18  30.802  23.396
 657.68  30.802  23.396
 658.18  30.919  23.396
 658.68  31.036  23.366
 659.18  30.919  23.396
 659.68  30.919  23.396
 660.18  30.802  23.366
 660.68  30.919  23.427
 661.18  31.036  23.427
 661.68  30.919  23.366
 662.18  30.919  23.396
 662.68  31.036  23.366
 663.18  30.802  23.396
 663.68  30.919  23.366
 664.18  30.919  23.427
 664.68  30.919  23.396
 665.18  31.036  23.427
 665.68  31.036  23.396
 666.18  30.919  23.396
 666.68  30.919  23.396
 667.18  31.036  23.396
 667.68  30.919  23.396
 668.18  31.036  23.396
 668.68  31.152  23.396
 669.18  31.036  23.366
 669.68  31.036  23.366
 670.18  31.036  23.366
 670.68  31.036  23.427
 671.18  31.036  23.396
 671.68  31.152  23.366
 672.18  31.036  23.396
 672.68  31.036  23.427
 673.18  31.036  23.396
 673.68  31.036  23.396
 674.18  31.036  23.427
 674.68  31.152  23.366
 675.18  31.036  23.366
 675.68  31.152  23.396
 676.18  31.036  23.427
 676.68  31.152  23.396
 677.18  31.152  23.396
 677.68  31.036  23.427
 678.18  31.036  23.396
 678.68  30.919  23.458
 679.18  31.036  23.396
 679.68  30.919  23.366
 680.18  31.152  23.396
 680.68  31.036  23.396
 681.18  30.919  23.427
 681.68  31.152  23.396
 682.18  31.036  23.396
 682.68  31.152  23.366
 683.18  31.269  23.396
 683.68  31.036  23.396
 684.18  31.269  23.427
 684.68  31.152  23.396
 685.18  31.036  23.396
 685.68  31.152  23.396
 686.18  31.152  23.366
 686.68  31.152  23.427
 687.18  31.269  23.396
 687.68  31.152  23.396
 688.18  31.036  23.396
 688.68  31.269  23.366
 689.18  31.152  23.396
 689.68  31.152  23.396
 690.18  31.152  23.366
 690.68  31.152  23.396
 691.18  31.152  23.396
 691.68  31.386  23.427
 692.18  31.269  23.366
 692.68  31.152  23.396
 693.18  31.269  23.366
 693.68  31.152  23.396
 694.18  31.152  23.366
 694.68  31.269  23.366
 695.18  31.269  23.427
 695.68  31.269  23.396
 696.18  31.152  23.396
 696.68  31.152  23.396
 697.18  31.152  23.396
 697.68  31.269  23.366
 698.18  31.269  23.396
 698.68  31.152  23.396
 699.18  31.269  23.396
 699.68  31.036  23.427
 700.18  31.503  23.396
 700.68  31.386  23.396
 701.18  31.269  23.427
 701.68  31.386  23.427
 702.18  31.503  23.427
 702.68  31.386  23.427
 703.18  31.269  23.427
 703.68  31.152  23.396
 704.18  31.503  23.396
 704.68  31.503  23.396
 705.18  31.386  23.396
 705.68  31.503  23.458
 706.18  31.503  23.427
 706.68  31.386  23.427
 707.18  31.269  23.396
 707.68  31.386  23.489
 708.18  31.386  23.427
 708.68  31.386  23.458
 709.18  31.386  23.427
 709.68  31.503  23.427
 710.18  31.386  23.396
 710.68  31.386  23.396
 711.18  31.386  23.427
 711.68  31.503  23.396
 712.18  31.386  23.458
 712.68  31.386  23.427
 713.18  31.503  23.396
 713.68  31.386  23.396
 714.18  31.386  23.427
 714.68  31.503  23.427
 715.18  31.152  23.396
 715.68  31.503  23.396
 716.18  31.503  23.427
 716.68  31.386  23.427
 717.18  31.503  23.427
 717.68  31.503  23.335
 718.18  31.386  23.396
 718.68  31.620  23.427
 719.18  31.386  23.427
 719.68  31.503  23.427
 720.18  31.386  23.427
 720.68  31.503  23.427
 721.18  31.503  23.427
 721.68  31.503  23.458
 722.18  31.503  23.427
 722.68  31.386  23.396
 723.18  31.620  23.489
 723.68  31.503  23.396
 724.18  31.503  23.396
 724.68  31.386  23.427
 725.18  31.503  23.396
 725.68  31.503  23.458
 726.18  31.620  23.396
 726.68  31.737  23.427
 727.18  31.620  23.458
 727.68  31.503  23.427
 728.18  31.854  23.396
 728.69  31.737  23.427
 729.19  31.620  23.458
 729.69  31.620  23.427
 730.19  31.854  23.427
 730.69  31.503  23.458
 731.19  31.503  23.458
 731.69  31.620  23.396
 732.19  31.503  23.396
 732.69  31.620  23.427
 733.19  31.620  23.396
 733.69  31.503  23.396
 734.19  31.854  23.396
 734.69  31.620  23.396
 735.19  31.737  23.427
 735.69  31.620  23.396
 736.19  31.620  23.427
 736.69  31.620  23.427
 737.19  31.503  23.396
 737.69  31.620  23.427
 738.19  31.503  23.427
 738.69  31.620  23.427
 739.19  31.737  23.396
 739.69  31.620  23.427
 740.19  31.620  23.427
 740.69  31.971  23.427
 741.19  31.737  23.427
 741.69  31.737  23.396
 742.19  31.386  23.427
 742.69  31.620  23.427
 743.19  31.737  23.396
 743.69  31.620  23.396
 744.19  31.854  23.427
 744.69  31.737  23.396
 745.19  31.737  23.427
 745.69  32.087  23.427
 746.19  31.737  23.427
 746.69  31.737  23.427
 747.19  31.737  23.396
 747.69  31.737  23.458
 748.19  31.737  23.427
 748.69  31.854  23.427
 749.19  31.737  23.427
 749.69  31.737  23.427
 750.19  31.737  23.458
 750.69  31.854  23.396
 751.19  31.737  23.366
 751.69  31.854  23.427
 752.19  31.737  23.427
 752.69  31.737  23.396
 753.19  31.854  23.427
 753.69  31.854  23.427
 754.19  31.737  23.427
 754.69  31.854  23.427
 755.19  31.854  23.427
 755.69  31.854  23.396
 756.19  31.971  23.427
 756.69  31.854  23.427
 757.19  31.854  23.458
 757.69  31.854  23.396
 758.19  31.737  23.458
 758.69  31.854  23.396
 759.19  31.854  23.427
 759.69  31.854  23.427
 760.19  31.854  23.458
 760.69  31.854  23.396
 761.19  31.854  23.458
 761.69  31.854  23.427
 762.19  31.854  23.427
 762.69  32.087  23.396
 763.19  31.854  23.427
 763.69  31.854  23.427
 764.19  31.737  23.396
 764.69  31.737  23.427
 765.19  31.737  23.427
 765.69  31.854  23.396
 766.19  31.854  23.427
 766.69  31.971  23.396
 767.19  31.971  23.396
 767.69  31.854  23.427
 768.19  32.087  23.396
 768.69  32.087  23.396
 769.19  31.971  23.489
 769.69  31.737  23.427
 770.19  31.971  23.427
 770.69  31.971  23.427
 771.19  31.971  23.427
 771.69  31.854  23.427
 772.19  31.854  23.520
 772.69  31.971  23.396
 773.19  31.971  23.396
 773.69  31.971  23.427
 774.19  31.971  23.427
 774.69  31.854  23.396
 775.19  31.971  23.427
 775.69  31.854  23.427
 776.19  32.204  23.396
 776.69  31.971  23.396
 777.19  31.971  23.427
 777.69  31.854  23.458
 778.19  31.971  23.427
 778.69  31.854  23.427
 779.19  32.087  23.427
 779.69  31.971  23.458
 780.19  31.737  23.427
 780.69  31.971  23.427
 781.19  31.971  23.427
 781.69  32.087  23.396
 782.19  31.854  23.396
 782.69  31.971  23.458
 783.19  31.971  23.396
 783.69  31.971  23.458
 784.19  32.087  23.427
 784.69  32.087  23.427
 785.19  31.971  23.427
 785.69  31.854  23.427
 786.19  31.971  23.427
 786.69  31.971  23.427
 787.19  32.087  23.396
 787.69  32.204  23.396
 788.19  32.087  23.427
 788.69  32.204  23.427
 789.19  32.087  23.427
 789.69  32.087  23.427
 790.19  32.087  23.427
 790.69  32.087  23.427
 791.19  32.087  23.396
 791.69  31.737  23.427
 792.19  32.087  23.427
 792.69  31.971  23.427
 793.19  32.204  23.427
 793.69  32.087  23.427
 794.19  32.087  23.427
 794.69  32.087  23.489
 795.19  32.204  23.396
 795.69  31.971  23.427
 796.19  32.087  23.427
 796.69  32.087  23.396
 797.19  31.971  23.427
 797.69  32.204  23.458
 798.19  32.087  23.458
 798.69  32.204  23.427
 799.19  32.087  23.489
 799.69  32.204  23.427
 800.19  32.087  23.427
 800.69  32.087  23.427
 801.19  32.087  23.427
 801.69  32.204  23.427
 802.19  32.321  23.427
 802.69  32.204  23.458
 803.19  32.204  23.427
 803.69  32.087  23.396
 804.19  32.321  23.458
 804.69  32.087  23.458
 805.19  32.087  23.427
 805.69  32.204  23.427
 806.19  32.204  23.427
 806.69  32.204  23.458
 807.19  32.204  23.427
 807.69  32.087  23.458
 808.19  32.204  23.427
 808.69  32.204  23.489
 809.19  32.321  23.427
 809.69  32.204  23.458
 810.19  32.204  23.396
 810.69  32.321  23.427
 811.19  32.321  23.458
 811.69  32.321  23.427
 812.19  32.321  23.396
 812.69  32.204  23.396
 813.19  32.321  23.427
 813.69  32.321  23.458
 814.19  32.204  23.458
 814.69  32.321  23.458
 815.19  32.204  23.427
 815.69  32.321  23.489
 816.19  32.204  23.458
 816.69  32.204  23.427
 817.19  32.321  23.427
 817.69  32.087  23.427
 818.19  32.204  23.396
 818.69  32.672  23.458
 819.19  32.204  23.396
 819.69  32.204  23.458
 820.19  32.321  23.427
 820.69  32.321  23.489
 821.19  32.204  23.427
 821.69  32.321  23.427
 822.19  32.321  23.427
 822.69  32.204  23.427
 823.19  32.204  23.396
 823.69  32.438  23.427
 824.19  32.204  23.427
 824.69  32.204  23.427
 825.19  32.321  23.427
 825.69  32.321  23.458
 826.19  32.438  23.458
 826.69  32.321  23.427
 827.19  32.438  23.427
 827.69  32.204  23.427
 828.19  32.438  23.427
 828.69  32.438  23.489
 829.19  32.087  23.427
 829.69  32.438  23.396
 830.19  32.438  23.458
 830.70  32.321  23.427
 831.20  32.438  23.458
 831.70  32.438  23.396
 832.20  32.321  23.427
 832.70  32.321  23.427
 833.20  32.321  23.458
 833.70  32.321  23.458
 834.20  32.438  23.427
 834.70  32.438  23.520
 835.20  32.438  23.427
 835.70  32.438  23.458
 836.20  32.321  23.427
 836.70  32.555  23.458
 837.20  32.321  23.458
 837.70  32.438  23.427
 838.20  32.438  23.427
 838.70  32.087  23.458
 839.20  32.438  23.427
 839.70  32.555  23.427
 840.20  32.321  23.366
 840.70  32.438  23.458
 841.20  32.438  23.458
 841.70  32.438  23.396
 842.20  32.438  23.396
 842.70  32.321  23.427
 843.20  32.555  23.427
 843.70  32.438  23.427
 844.20  32.555  23.458
 844.70  32.555  23.458
 845.20  32.438  23.427
 845.70  32.555  23.427
 846.20  32.555  23.427
 846.70  32.555  23.458
 847.20  32.438  23.427
 847.70  32.438  23.396
 848.20  32.438  23.427
 848.70  32.321  23.427
 849.20  32.438  23.427
 849.70  32.555  23.489
 850.20  32.438  23.427
 850.70  32.555  23.396
 851.20  32.438  23.458
 851.70  32.555  23.458
 852.20  32.555  23.396
 852.70  32.321  23.427
 853.20  32.321  23.458
 853.70  32.438  23.458
 854.20  32.438  23.458
 854.70  32.555  23.427
 855.20  32.555  23.427
 855.70  32.555  23.427
 856.20  32.438  23.458
 856.70  32.555  23.458
 857.20  32.438  23.458
 857.70  32.438  23.458
 858.20  32.555  23.458
 858.70  32.555  23.427
 859.20  32.438  23.427
 859.70  32.672  23.458
 860.20  32.438  23.458
 860.70  32.906  23.427
 861.20  32.555  23.396
 861.70  32.555  23.427
 862.20  32.672  23.458
 862.70  32.906  23.396
 863.20  32.672  23.427
 863.70  32.672  23.427
 864.20  32.555  23.458
 864.70  32.438  23.458
 865.20  32.438  23.427
 865.70  32.672  23.427
 866.20  32.555  23.489
 866.70  32.555  23.458
 867.20  32.555  23.427
 867.70  32.672  23.489
 868.20  32.789  23.458
 868.70  32.555  23.427
 869.20  32.555  23.458
 869.70  32.672  23.427
 870.20  32.438  23.489
 870.70  32.672  23.427
 871.20  32.555  23.458
 871.70  32.672  23.458
 872.20  32.555  23.427
 872.70  32.555  23.396
 873.20  32.555  23.458
 873.70  32.672  23.458
 874.20  32.672  23.458
 874.70  32.672  23.489
 875.20  32.555  23.458
 875.70  32.672  23.489
 876.20  32.555  23.427
 876.70  32.438  23.427
 877.20  32.438  23.458
 877.70  32.672  23.458
 878.20  32.789  23.458
 878.70  32.672  23.427
 879.20  32.672  23.489
 879.70  32.555  23.458
 880.20  32.672  23.458
 880.70  32.672  23.489
 881.20  32.672  23.458
 881.70  32.672  23.489
 882.20  32.672  23.396
 882.70  32.555  23.427
 883.20  32.789  23.396
 883.70  32.672  23.427
 884.20  32.789  23.427
 884.70  32.789  23.458
 885.20  32.672  23.458
 885.70  32.672  23.458
 886.20  32.555  23.458
 886.70  32.672  23.458
 887.20  33.022  23.427
 887.70  32.672  23.427
 888.20  32.672  23.427
 888.70  32.672  23.427
 889.20  32.789  23.458
 889.70  32.789  23.458
 890.20  32.906  23.458
 890.70  32.672  23.458
 891.20  32.789  23.396
 891.70  32.789  23.489
 892.20  32.789  23.427
 892.70  32.789  23.489
 893.20  32.789  23.489
 893.70  32.789  23.458
 894.20  32.906  23.458
 894.70  32.672  23.427
 895.20  32.789  23.458
 895.70  32.789  23.458
 896.20  33.022  23.458
 896.70  32.789  23.458
 897.20  32.906  23.458
 897.70  32.789  23.427
 898.20  32.789  23.458
 898.70  32.789  23.520
 899.20  32.672  23.458
 899.70  32.672  23.458
 900.20  32.906  23.489
 900.70  32.906  23.458
 901.20  33.022  23.458
 901.70  32.789  23.458
 902.20  32.906  23.458
 902.70  32.906  23.427
 903.20  32.789  23.458
 903.70  32.789  23.458
 904.20  32.906  23.427
 904.70  32.789  23.458
 905.20  32.789  23.458
 905.70  32.789  23.458
 906.20  32.906  23.458
 906.70  32.906  23.458
 907.20  32.789  23.427
 907.70  32.906  23.489
 908.20  32.789  23.458
 908.70  32.906  23.458
 909.20  32.789  23.458
 909.70  32.789  23.458
 910.20  32.789  23.489
 910.70  32.789  23.458
 911.20  32.789  23.458
 911.70  32.906  23.458
 912.20  32.789  23.458
 912.70  32.789  23.396
 913.20  32.789  23.427
 913.70  32.789  23.458
 914.20  32.906  23.427
 914.70  32.906  23.458
 915.20  32.906  23.458
 915.70  33.022  23.458
 916.20  33.022  23.458
 916.70  32.906  23.458
 917.20  32.789  23.489
 917.70  32.906  23.489
 918.20  32.906  23.489
 918.70  32.906  23.458
 919.20  32.906  23.396
 919.70  33.022  23.458
 920.20  33.022  23.458
 920.70  32.906  23.458
 921.20  32.906  23.458
 921.70  32.906  23.458
 922.20  32.906  23.458
 922.70  32.906  23.458
 923.20  33.022  23.458
 923.70  32.789  23.458
 924.20  32.906  23.458
 924.70  32.789  23.489
 925.20  32.906  23.427
 925.70  32.906  23.489
 926.20  32.906  23.458
 926.70  32.789  23.458
 927.20  32.906  23.458
 927.70  33.022  23.458
 928.20  32.906  23.458
 928.70  33.139  23.458
 929.20  33.139  23.489
 929.70  32.906  23.458
 930.20  32.906  23.458
 930.70  32.906  23.458
 931.20  33.022  23.489
 931.70  33.022  23.458
 932.20  32.906  23.489
 932.70  33.022  23.458
 933.20  32.789  23.427
 933.70  33.139  23.458
 934.20  32.906  23.396
 934.70  32.906  23.458
 935.20  33.022  23.427
 935.70  32.906  23.458
 936.20  33.022  23.458
 936.70  33.022  23.427
 937.20  33.022  23.458
 937.70  33.022  23.489
 938.20  32.789  23.458
 938.70  33.022  23.458
 939.20  33.022  23.458
 939.70  32.906  23.458
 940.20  33.022  23.489
 940.70  33.256  23.489
 941.20  33.139  23.458
 941.70  33.022  23.458
 942.20  33.022  23.458
 942.70  32.906  23.458
 943.20  33.139  23.458
 943.70  33.139  23.427
 944.21  33.022  23.458
 944.71  32.906  23.458
 945.21  33.022  23.458
 945.71  33.256  23.489
 946.21  33.022  23.489
 946.71  33.022  23.458
 947.21  33.139  23.489
 947.71  33.022  23.427
 948.21  33.022  23.427
 948.71  33.022  23.489
 949.21  33.139  23.489
 949.71  33.139  23.458
 950.21  33.022  23.489
 950.71  33.373  23.520
 951.21  33.139  23.489
 951.71  33.139  23.489
 952.21  33.256  23.489
 952.71  33.256  23.489
 953.21  33.022  23.489
 953.71  33.139  23.489
 954.21  33.022  23.489
 954.71  33.139  23.489
 955.21  33.022  23.520
 955.71  33.022  23.489
 956.21  32.789  23.489
 956.71  33.022  23.489
 957.21  33.022  23.489
 957.71  33.139  23.458
 958.21  33.139  23.458
 958.71  33.139  23.396
 959.21  33.139  23.489
 959.71  33.139  23.458
 960.21  33.139  23.458
 960.71  33.256  23.458
 961.21  33.139  23.489
 961.71  33.256  23.458
 962.21  33.022  23.427
 962.71  33.139  23.489
 963.21  33.256  23.489
 963.71  33.373  23.458
 964.21  33.139  23.458
 964.71  33.256  23.458
 965.21  33.139  23.489
 965.71  33.256  23.489
 966.21  33.256  23.520
 966.71  33.256  23.489
 967.21  33.256  23.458
 967.71  33.256  23.489
 968.21  33.139  23.458
 968.71  33.139  23.458
 969.21  33.256  23.489
 969.71  33.256  23.520
 970.21  33.139  23.427
 970.71  33.139  23.489
 971.21  33.256  23.489
 971.71  33.373  23.489
 972.21  33.256  23.489
 972.71  33.139  23.489
 973.21  33.256  23.489
 973.71  33.256  23.489
 974.21  33.139  23.489
 974.71  33.256  23.489
 975.21  33.139  23.489
 975.71  33.256  23.458
 976.21  33.256  23.489
 976.71  33.139  23.489
 977.21  33.139  23.489
 977.71  33.256  23.458
 978.21  33.490  23.489
 978.71  33.256  23.458
 979.21  33.256  23.489
 979.71  33.373  23.489
 980.21  33.607  23.458
 980.71  33.256  23.489
 981.21  33.256  23.489
 981.71  33.373  23.489
 982.21  33.256  23.458
 982.71  33.256  23.489
 983.21  33.139  23.489
 983.71  33.139  23.458
 984.21  33.373  23.489
 984.71  33.373  23.458
 985.21  33.256  23.458
 985.71  33.373  23.489
 986.21  33.139  23.489
 986.71  33.256  23.458
 987.21  33.373  23.458
 987.71  33.139  23.520
 988.21  33.256  23.489
 988.71  33.256  23.458
 989.21  33.373  23.489
 989.71  33.256  23.520
 990.21  33.373  23.489
 990.71  33.256  23.489
 991.21  33.373  23.489
 991.71  33.256  23.489
 992.21  33.373  23.489
 992.71  33.373  23.458
 993.21  33.373  23.458
 993.71  33.139  23.489
 994.21  33.490  23.458
 994.71  33.256  23.458
 995.21  33.256  23.458
 995.71  33.373  23.458
 996.21  33.373  23.458
 996.71  33.256  23.489
 997.21  33.490  23.489
 997.71  33.373  23.520
 998.21  33.373  23.489
 998.71  33.256  23.489
 999.21  33.490  23.458
 999.71  33.373  23.489
1000.21  33.373  23.489
1000.71  33.490  23.520
1001.21  33.256  23.550
1001.71  33.490  23.489
1002.21  33.373  23.550
1002.71  33.373  23.458
1003.21  33.373  23.489
1003.71  33.373  23.489
1004.21  33.490  23.520
1004.71  33.373  23.520
1005.21  33.373  23.458
1005.71  33.373  23.458
1006.21  33.373  23.489
1006.71  33.607  23.489
1007.21  33.139  23.458
1007.71  33.607  23.458
1008.21  33.373  23.427
1008.71  33.490  23.458
1009.21  33.373  23.489
1009.71  33.373  23.489
1010.21  33.373  23.458
1010.71  33.373  23.520
1011.21  33.373  23.520
1011.71  33.373  23.458
1012.21  33.490  23.458
1012.71  33.022  23.489
1013.21  33.373  23.458
1013.71  33.256  23.489
1014.21  33.373  23.520
1014.71  33.256  23.489
1015.21  33.373  23.489
1015.71  33.373  23.520
1016.21  33.607  23.489
1016.71  33.373  23.458
1017.21  33.256  23.520
1017.71  33.490  23.489
1018.21  33.490  23.489
1018.71  33.373  23.458
1019.21  33.490  23.458
1019.71  33.373  23.489
1020.21  33.373  23.489
1020.71  33.607  23.489
1021.21  33.373  23.489
1021.71  33.490  23.458
1022.21  33.607  23.489
1022.71  33.490  23.489
1023.21  33.607  23.458
1023.71  33.490  23.489
1024.21  33.490  23.520
1024.71  33.490  23.458
1025.21  33.490  23.489
1025.71  33.490  23.458
1026.21  33.490  23.520
1026.71  33.373  23.520
1027.21  33.373  23.489
1027.71  33.607  23.489
1028.21  33.607  23.489
1028.71  33.490  23.489
1029.21  33.490  23.489
1029.71  33.490  23.489
1030.21  33.490  23.489
1030.71  33.373  23.520
1031.21  33.607  23.489
1031.71  33.490  23.489
1032.21  33.490  23.489
1032.71  33.373  23.458
1033.21  33.490  23.489
1033.71  33.607  23.489
1034.21  33.490  23.489
1034.71  33.490  23.489
1035.21  33.373  23.489
1035.71  33.490  23.489
1036.21  33.490  23.550
1036.71  33.373  23.520
1037.21  33.490  23.520
1037.71  33.256  23.489
1038.21  33.373  23.489
1038.71  33.490  23.489
1039.21  33.490  23.458
1039.71  33.607  23.489
1040.21  33.373  23.489
1040.71  33.607  23.489
1041.21  33.607  23.489
1041.71  33.490  23.489
1042.21  33.607  23.489
1042.71  33.490  23.489
1043.21  33.490  23.489
1043.71  33.607  23.489
1044.21  33.724  23.489
1044.71  33.607  23.458
1045.21  33.607  23.489
1045.71  33.490  23.550
1046.21  33.607  23.489
1046.71  33.490  23.489
1047.21  33.373  23.489
1047.71  33.607  23.520
1048.21  33.724  23.520
1048.71  33.607  23.489
1049.21  33.490  23.458
1049.71  33.607  23.489
1050.21  33.490  23.489
1050.71  33.607  23.489
1051.21  33.373  23.489
1051.71  33.607  23.489
1052.21  33.724  23.550
1052.71  33.490  23.489
1053.21  33.724  23.520
1053.71  33.490  23.489
1054.21  33.490  23.489
1054.71  33.607  23.520
1055.21  33.490  23.489
1055.71  33.490  23.427
1056.21  33.607  23.458
1056.71  33.607  23.489
1057.21  33.607  23.489
1057.71  33.490  23.458
1058.21  33.607  23.489
1058.71  33.490  23.458
1059.21  33.607  23.489
1059.71  33.607  23.520
1060.21  33.490  23.489
1060.71  33.607  23.520
1061.21  33.607  23.489
1061.71  33.724  23.489
1062.21  33.607  23.520
1062.71  33.373  23.520
1063.21  33.490  23.489
1063.71  33.607  23.520
1064.21  33.724  23.489
1064.71  33.724  23.489
1065.21  33.607  23.489
1065.71  33.607  23.458
1066.21  33.724  23.520
1066.71  33.607  23.489
1067.21  33.724  23.489
1067.71  33.607  23.489
1068.22  33.724  23.520
1068.72  33.490  23.489
1069.22  33.607  23.489
1069.72  33.724  23.458
1070.22  33.490  23.489
1070.72  33.607  23.489
1071.22  33.724  23.489
1071.72  33.607  23.489
1072.22  33.607  23.489
1072.72  33.607  23.489
1073.22  33.607  23.520
1073.72  33.841  23.520
1074.22  33.724  23.489
1074.72  33.724  23.489
1075.22  33.607  23.489
1075.72  33.607  23.489
1076.22  33.607  23.520
1076.72  33.724  23.489
1077.22  33.607  23.520
1077.72  33.607  23.489
1078.22  33.724  23.520
1078.72  33.724  23.520
1079.22  33.607  23.489
1079.72  33.607  23.520
1080.22  33.607  23.550
1080.72  33.607  23.489
1081.22  33.841  23.489
1081.72  33.607  23.489
1082.22  33.490  23.520
1082.72  33.490  23.489
1083.22  33.607  23.520
1083.72  33.724  23.550
1084.22  33.724  23.489
1084.72  33.607  23.520
1085.22  33.607  23.520
1085.72  33.607  23.520
1086.22  33.724  23.520
1086.72  33.724  23.520
1087.22  33.841  23.489
1087.72  33.724  23.520
1088.22  33.724  23.489
1088.72  33.724  23.520
1089.22  33.607  23.489
1089.72  33.607  23.520
1090.22  33.607  23.489
1090.72  33.607  23.520
1091.22  33.490  23.550
1091.72  33.724  23.520
1092.22  33.607  23.489
1092.72  33.724  23.520
1093.22  33.607  23.489
1093.72  33.607  23.520
1094.22  33.841  23.489
1094.72  33.607  23.489
1095.22  33.607  23.458
1095.72  33.607  23.489
1096.22  33.724  23.520
1096.72  33.607  23.520
1097.22  33.724  23.458
1097.72  33.724  23.489
1098.22  33.724  23.427
1098.72  33.607  23.550
1099.22  33.724  23.520
1099.72  33.607  23.458
1100.22  33.724  23.520
1100.72  33.607  23.489
1101.22  33.607  23.550
1101.72  33.724  23.458
1102.22  33.724  23.489
1102.72  33.607  23.489
1103.22  33.724  23.520
1103.72  33.724  23.520
1104.22  33.607  23.520
1104.72  33.724  23.489
1105.22  33.724  23.520
1105.72  33.607  23.520
1106.22  33.841  23.489
1106.72  33.490  23.520
1107.22  33.607  23.520
1107.72  33.724  23.520
1108.22  33.724  23.520
1108.72  33.724  23.520
1109.22  33.607  23.520
1109.72  33.724  23.458
1110.22  33.841  23.520
1110.72  33.841  23.458
1111.22  33.724  23.520
1111.72  33.490  23.520
1112.22  33.607  23.550
1112.72  33.724  23.520
1113.22  33.607  23.520
1113.72  33.607  23.489
1114.22  33.724  23.520
1114.72  33.607  23.520
1115.22  33.724  23.520
1115.72  33.607  23.520
1116.22  33.957  23.489
1116.72  33.724  23.550
1117.22  33.607  23.550
1117.72  33.607  23.520
1118.22  33.724  23.520
1118.72  33.607  23.489
1119.22  33.607  23.520
1119.72  33.607  23.520
1120.22  33.607  23.550
1120.72  33.607  23.550
1121.22  33.607  23.520
1121.72  33.607  23.520
1122.22  33.724  23.489
1122.72  33.607  23.489
1123.22  33.607  23.489
1123.72  33.724  23.520
1124.22  33.607  23.458
1124.72  33.607  23.550
1125.22  33.724  23.520
1125.72  33.724  23.520
1126.22  33.490  23.550
1126.72  33.607  23.520
1127.22  33.724  23.489
1127.72  33.607  23.520
1128.22  33.724  23.520
1128.72  33.607  23.550
1129.22  33.841  23.520
1129.72  33.724  23.550
1130.22  33.607  23.520
1130.72  33.607  23.520
1131.22  33.490  23.520
1131.72  33.724  23.520
1132.22  33.607  23.520
1132.72  33.724  23.520
1133.22  33.607  23.520
1133.72  33.607  23.458
1134.22  33.607  23.520
1134.72  33.724  23.520
1135.22  33.724  23.489
1135.72  33.724  23.520
1136.22  33.607  23.520
1136.72  33.607  23.550
1137.22  33.724  23.489
1137.72  33.607  23.520
1138.22  33.607  23.489
1138.72  33.841  23.520
1139.22  33.841  23.550
1139.72  33.607  23.520
1140.22  33.607  23.520
1140.72  33.607  23.520
1141.22  33.607  23.489
1141.72  33.607  23.520
1142.22  33.607  23.489
1142.72  33.607  23.489
1143.22  33.724  23.520
1143.72  33.841  23.520
1144.22  33.724  23.550
1144.72  33.607  23.489
1145.22  33.841  23.489
1145.72  33.607  23.520
1146.22  33.724  23.489
1146.72  33.607  23.550
1147.22  33.724  23.458
1147.72  33.724  23.550
1148.22  33.724  23.489
1148.72  33.724  23.520
1149.22  33.841  23.520
1149.72  33.607  23.520
1150.22  33.724  23.489
1150.72  33.490  23.520
1151.22  33.607  23.520
1151.72  33.490  23.581
1152.22  33.841  23.581
1152.72  33.957  23.520
1153.22  33.724  23.520
1153.72  33.724  23.520
1154.22  33.724  23.550
1154.72  33.724  23.520
1155.22  33.841  23.520
1155.72  33.841  23.520
1156.22  33.957  23.520
1156.72  33.724  23.489
1157.22  33.724  23.581
1157.72  33.841  23.520
1158.22  33.724  23.550
1158.72  34.074  23.520
1159.22  33.724  23.520
1159.72  33.841  23.550
1160.22  33.724  23.550
1160.72  33.724  23.489
1161.22  33.724  23.520
1161.72  33.841  23.520
1162.22  33.724  23.520
1162.72  33.724  23.520
1163.22  33.724  23.550
1163.72  33.607  23.520
1164.22  33.724  23.520
1164.72  33.607  23.520
1165.22  33.724  23.520
1165.72  33.724  23.550
1166.22  33.724  23.520
1166.72  34.074  23.520
1167.22  33.607  23.520
1167.72  33.841  23.520
1168.22  33.724  23.489
1168.72  33.841  23.489
1169.22  33.724  23.489
1169.72  33.724  23.550
1170.22  33.724  23.489
1170.72  33.724  23.520
1171.22  33.724  23.520
1171.72  33.841  23.520
1172.22  33.841  23.550
1172.72  33.841  23.550
1173.22  33.841  23.520
1173.72  33.841  23.520
1174.22  33.841  23.520
1174.72  33.841  23.612
1175.22  33.724  23.520
1175.72  33.724  23.581
1176.22  33.841  23.550
1176.72  33.724  23.550
1177.22  33.724  23.458
1177.72  33.724  23.489
1178.22  33.841  23.489
1178.72  33.724  23.520
1179.22  33.841  23.520
1179.72  33.607  23.520
1180.22  33.724  23.520
1180.72  33.724  23.489
1181.23  33.607  23.520
1181.73  33.724  23.520
1182.23  33.607  23.520
1182.73  33.841  23.458
1183.23  33.957  23.520
1183.73  33.724  23.520
1184.23  33.841  23.489
1184.73  33.841  23.550
1185.23  33.724  23.520
1185.73  33.841  23.520
1186.23  33.724  23.520
1186.73  33.724  23.581
1187.23  33.841  23.550
1187.73  33.841  23.550
1188.23  33.841  23.520
1188.73  33.724  23.520
1189.23  33.841  23.520
1189.73  33.841  23.550
1190.23  34.074  23.581
1190.73  33.957  23.550
1191.23  33.957  23.520
1191.73  33.957  23.520
1192.23  33.957  23.520
1192.73  33.957  23.520
1193.23  33.724  23.550
1193.73  33.841  23.550
1194.23  33.841  23.550
1194.73  33.724  23.550
1195.23  33.841  23.550
1195.73  33.841  23.520
1196.23  33.841  23.520
1196.73  33.841  23.550
1197.23  33.841  23.489
1197.73  33.957  23.520
1198.23  33.841  23.520
1198.73  33.841  23.550
1199.23  34.074  23.489
1199.73  33.957  23.550
1200.23  33.957  23.520
1200.73  33.957  23.520
1201.23  33.841  23.520
1201.73  33.841  23.520
1202.23  33.841  23.550
1202.73  33.841  23.550
1203.23  33.957  23.520
1203.73  33.957  23.489
1204.23  33.724  23.520
1204.73  33.957  23.520
1205.23  33.841  23.520
1205.73  33.841  23.520
1206.23  33.841  23.550
1206.73  33.957  23.520
1207.23  33.841  23.550
1207.73  33.957  23.520
1208.23  33.724  23.550
1208.73  33.841  23.520
1209.23  33.841  23.520
1209.73  33.841  23.520
1210.23  33.957  23.520
1210.73  33.957  23.489
1211.23  33.957  23.520
1211.73  33.724  23.520
1212.23  33.957  23.550
1212.73  33.841  23.520
1213.23  33.957  23.550
1213.73  34.074  23.550
1214.23  33.957  23.550
1214.73  33.957  23.520
1215.23  33.957  23.550
1215.73  33.957  23.520
1216.23  33.841  23.550
1216.73  33.957  23.550
1217.23  33.957  23.550
1217.73  33.957  23.550
1218.23  33.957  23.520
1218.73  33.957  23.489
1219.23  33.841  23.520
1219.73  33.957  23.581
1220.23  33.841  23.550
1220.73  33.957  23.520
1221.23  33.957  23.550
1221.73  34.074  23.550
1222.23  33.724  23.550
1222.73  33.841  23.581
1223.23  33.957  23.520
1223.73  33.841  23.550
1224.23  34.074  23.520
1224.73  33.841  23.520
1225.23  33.957  23.550
1225.73  33.957  23.550
1226.23  33.841  23.520
1226.73  33.957  23.581
1227.23  33.957  23.489
1227.73  33.724  23.520
1228.23  34.074  23.581
1228.73  33.957  23.520
1229.23  33.957  23.520
1229.73  33.841  23.520
1230.23  33.957  23.550
1230.73  33.957  23.520
1231.23  34.308  23.520
1231.73  33.957  23.550
1232.23  34.191  23.550
1232.73  33.957  23.520
1233.23  33.957  23.550
1233.73  33.841  23.550
1234.23  34.191  23.581
1234.73  34.074  23.520
1235.23  33.957  23.520
1235.73  33.957  23.520
1236.23  33.957  23.550
1236.73  34.074  23.550
1237.23  33.957  23.550
1237.73  33.957  23.550
1238.23  33.957  23.520
1238.73  33.957  23.581
1239.23  34.308  23.550
1239.73  33.841  23.520
1240.23  33.957  23.550
1240.73  33.957  23.550
1241.23  33.957  23.550
1241.73  34.074  23.581
1242.23  33.957  23.520
1242.73  33.841  23.520
1243.23  34.074  23.520
1243.73  33.957  23.550
1244.23  33.957  23.550
1244.73  33.957  23.581
1245.23  34.191  23.520
1245.73  33.957  23.550
1246.23  34.074  23.550
1246.73  34.074  23.550
1247.23  33.841  23.520
1247.73  34.074  23.550
1248.23  34.191  23.550
1248.73  34.074  23.550
1249.23  34.074  23.520
1249.73  33.841  23.550
1250.23  33.957  23.550
1250.73  34.074  23.520
1251.23  34.074  23.581
1251.73  34.191  23.520
1252.23  33.957  23.550
1252.73  34.074  23.550
1253.23  34.191  23.550
1253.73  34.074  23.550
1254.23  33.957  23.581
1254.73  34.074  23.520
1255.23  34.191  23.550
1255.73  34.074  23.550
1256.23  34.191  23.550
1256.73  33.957  23.581
1257.23  34.074  23.550
1257.73  34.191  23.550
1258.23  34.425  23.520
1258.73  34.191  23.550
1259.23  34.074  23.550
1259.73  33.957  23.550
1260.23  34.074  23.550
1260.73  34.425  23.550
1261.23  34.308  23.550
1261.73  34.074  23.550
1262.23  34.191  23.581
1262.73  34.074  23.550
1263.23  34.074  23.550
1263.73  34.074  23.581
1264.23  34.191  23.550
1264.73  34.074  23.550
1265.23  34.191  23.550
1265.73  34.191  23.581
1266.23  34.074  23.489
1266.73  34.074  23.489
1267.23  34.074  23.520
1267.73  34.074  23.520
1268.23  34.308  23.581
1268.73  34.074  23.520
1269.23  34.191  23.520
1269.73  34.074  23.550
1270.23  34.308  23.550
1270.73  34.074  23.581
1271.23  34.074  23.612
1271.73  34.191  23.550
1272.23  34.074  23.550
1272.73  33.841  23.550
1273.23  33.957  23.520
1273.73  34.191  23.520
1274.23  34.191  23.581
1274.73  34.308  23.550
1275.23  34.074  23.550
1275.73  34.074  23.550
1276.23  34.191  23.581
1276.73  34.191  23.550
1277.23  34.191  23.520
1277.73  33.957  23.520
1278.23  33.957  23.550
1278.73  34.074  23.550
1279.23  34.074  23.550
1279.73  34.074  23.520
1280.23  34.191  23.550
1280.73  34.074  23.550
1281.23  34.191  23.550
1281.73  33.957  23.520
1282.23  34.191  23.581
1282.73  34.191  23.550
1283.23  34.191  23.520
1283.73  34.191  23.581
1284.23  34.191  23.550
1284.73  34.191  23.550
1285.23  34.074  23.550
1285.73  34.191  23.550
1286.23  33.957  23.520
1286.73  34.191  23.550
1287.23  34.191  23.520
1287.73  34.308  23.550
1288.23  34.074  23.489
1288.73  34.074  23.550
1289.23  34.191  23.489
1289.73  34.308  23.550
1290.23  34.191  23.581
1290.73  34.074  23.581
1291.23  34.191  23.550
1291.73  34.191  23.550
1292.23  34.308  23.550
1292.73  34.191  23.581
1293.23  34.074  23.520
1293.73  34.308  23.550
1294.24  34.308  23.550
1294.74  34.191  23.581
1295.24  34.308  23.550
1295.74  34.191  23.550
1296.24  34.191  23.550
1296.74  34.308  23.581
1297.24  34.191  23.520
1297.74  34.191  23.581
1298.24  34.074  23.612
1298.74  34.074  23.550
1299.24  34.308  23.550
1299.74  34.308  23.489
1300.24  34.191  23.550
1300.74  34.191  23.550
1301.24  34.308  23.581
1301.74  34.191  23.550
1302.24  34.191  23.612
1302.74  34.191  23.581
1303.24  34.074  23.550
1303.74  34.074  23.550
1304.24  34.074  23.550
1304.74  34.191  23.581
1305.24  34.191  23.581
1305.74  34.308  23.550
1306.24  34.074  23.520
1306.74  34.074  23.550
1307.24  34.308  23.581
1307.74  34.308  23.581
1308.24  34.425  23.550
1308.74  34.308  23.550
1309.24  34.191  23.550
1309.74  34.191  23.581
1310.24  34.191  23.550
1310.74  34.191  23.612
1311.24  34.425  23.581
1311.74  34.191  23.612
1312.24  34.308  23.520
1312.74  34.308  23.550
1313.24  34.074  23.581
1313.74  34.191  23.550
1314.24  34.074  23.550
1314.74  34.425  23.550
1315.24  34.308  23.550
1315.74  34.308  23.581
1316.24  34.191  23.581
1316.74  34.308  23.550
1317.24  34.191  23.550
1317.74  34.308  23.550
1318.24  34.191  23.550
1318.74  34.308  23.581
1319.24  34.308  23.520
1319.74  34.308  23.550
1320.24  34.191  23.489
1320.74  34.308  23.581
1321.24  34.308  23.550
1321.74  34.308  23.550
1322.24  34.308  23.612
1322.74  34.191  23.581
1323.24  34.191  23.550
1323.74  34.425  23.550
1324.24  34.308  23.550
1324.74  34.308  23.581
1325.24  34.308  23.550
1325.74  34.308  23.550
1326.24  34.308  23.550
1326.74  34.308  23.612
1327.24  34.308  23.550
1327.74  34.308  23.520
1328.24  34.425  23.550
1328.74  34.308  23.550
1329.24  34.425  23.550
1329.74  34.191  23.550
1330.24  34.308  23.581
1330.74  34.425  23.550
1331.24  34.308  23.581
1331.74  34.425  23.581
1332.24  34.308  23.581
1332.74  34.308  23.550
1333.24  34.308  23.581
1333.74  34.308  23.550
1334.24  34.191  23.581
1334.74  34.308  23.581
1335.24  34.308  23.581
1335.74  34.308  23.550
1336.24  34.308  23.550
1336.74  34.425  23.550
1337.24  34.308  23.581
1337.74  34.425  23.581
1338.24  34.308  23.550
1338.74  34.191  23.550
1339.24  34.308  23.674
1339.74  34.425  23.581
1340.24  34.308  23.550
1340.74  34.308  23.550
1341.24  34.308  23.550
1341.74  34.425  23.581
1342.24  34.308  23.550
1342.74  34.425  23.581
1343.24  34.425  23.612
1343.74  34.308  23.550
1344.24  34.425  23.550
1344.74  34.308  23.550
1345.24  34.308  23.581
1345.74  34.425  23.550
1346.24  34.308  23.581
1346.74  34.425  23.581
1347.24  34.308  23.581
1347.74  34.425  23.581
1348.24  34.308  23.581
1348.74  34.308  23.581
1349.24  34.308  23.581
1349.74  34.425  23.581
1350.24  34.425  23.581
1350.74  34.191  23.581
1351.24  34.308  23.581
1351.74  34.542  23.550
1352.24  34.425  23.581
1352.74  34.542  23.581
1353.24  34.425  23.581
1353.74  34.308  23.550
1354.24  34.425  23.612
1354.74  34.425  23.581
1355.24  34.425  23.581
1355.74  34.542  23.581
1356.24  34.425  23.550
1356.74  34.542  23.581
1357.24  34.425  23.550
1357.74  34.425  23.550
1358.24  34.308  23.612
1358.74  34.425  23.581
1359.24  34.308  23.612
1359.74  34.542  23.612
1360.24  34.425  23.581
1360.74  34.425  23.612
1361.24  34.542  23.520
1361.74  34.425  23.581
1362.24  34.542  23.581
1362.74  34.425  23.581
1363.24  34.425  23.581
1363.74  34.542  23.581
1364.24  34.542  23.581
1364.74  34.542  23.581
1365.24  34.308  23.612
1365.74  34.425  23.612
1366.24  34.542  23.612
1366.74  34.542  23.581
1367.24  34.425  23.612
1367.74  34.542  23.612
1368.24  34.659  23.550
1368.74  34.542  23.581
1369.24  34.308  23.550
1369.74  34.659  23.581
1370.24  34.425  23.581
1370.74  34.308  23.581
1371.24  34.542  23.581
1371.74  34.542  23.612
1372.24  34.542  23.612
1372.74  34.425  23.581
1373.24  34.425  23.643
1373.74  34.425  23.581
1374.24  34.425  23.581
1374.74  34.425  23.581
1375.24  34.542  23.581
1375.74  34.542  23.581
1376.24  34.542  23.550
1376.74  34.542  23.581
1377.24  34.308  23.581
1377.74  34.425  23.612
1378.24  34.542  23.581
1378.74  34.542  23.612
1379.24  34.191  23.581
1379.74  34.659  23.581
1380.24  34.425  23.550
1380.74  34.542  23.643
1381.24  34.425  23.612
1381.74  34.542  23.612
1382.24  34.542  23.550
1382.74  34.542  23.581
1383.24  34.542  23.581
1383.74  34.659  23.581
1384.24  34.542  23.612
1384.74  34.425  23.581
1385.24  34.308  23.581
1385.74  34.542  23.581
1386.24  34.308  23.550
1386.74  34.425  23.581
1387.24  34.425  23.581
1387.74  34.425  23.581
1388.24  34.542  23.612
1388.74  34.308  23.643
1389.24  34.425  23.581
1389.74  34.308  23.612
1390.24  34.425  23.643
1390.74  34.659  23.550
1391.24  34.542  23.581
1391.74  34.542  23.612
1392.24  34.425  23.612
1392.74  34.308  23.550
1393.24  34.542  23.581
1393.74  34.542  23.581
1394.24  34.542  23.612
1394.74  34.542  23.581
1395.24  34.542  23.581
1395.74  34.425  23.581
1396.24  34.659  23.581
1396.74  34.542  23.581
1397.24  34.542  23.581
1397.74  34.425  23.550
1398.24  34.425  23.581
1398.74  34.425  23.550
1399.24  34.542  23.581
1399.74  34.542  23.581
1400.24  34.425  23.581
1400.74  34.425  23.581
1401.24  34.542  23.581
1401.74  34.542  23.581
1402.24  34.425  23.550
1402.74  34.542  23.550
1403.24  34.542  23.612
1403.74  34.542  23.550
1404.24  34.425  23.581
1404.74  34.542  23.612
1405.24  34.425  23.581
1405.74  34.542  23.581
1406.24  34.425  23.581
1406.74  34.425  23.581
1407.25  34.542  23.520
1407.75  34.542  23.550
1408.25  34.659  23.612
1408.75  34.425  23.581
1409.25  34.542  23.581
1409.75  34.425  23.612
1410.25  34.542  23.581
1410.75  34.542  23.550
1411.25  34.659  23.581
1411.75  34.425  23.581
1412.25  34.542  23.581
1412.75  34.542  23.612
1413.25  34.776  23.520
1413.75  34.542  23.581
1414.25  34.542  23.581
1414.75  34.659  23.643
1415.25  34.542  23.550
1415.75  34.425  23.581
1416.25  34.542  23.581
1416.75  34.659  23.581
1417.25  34.425  23.581
1417.75  34.425  23.581
1418.25  34.542  23.581
1418.75  34.542  23.581
1419.25  34.542  23.581
1419.75  34.542  23.550
1420.25  34.659  23.581
1420.75  34.659  23.612
1421.25  34.542  23.550
1421.75  34.659  23.612
1422.25  34.659  23.581
1422.75  34.425  23.581
1423.25  34.542  23.581
1423.75  34.659  23.550
1424.25  34.542  23.612
1424.75  34.542  23.581
1425.25  34.542  23.581
1425.75  34.542  23.550
1426.25  34.542  23.550
1426.75  34.659  23.550
1427.25  34.659  23.581
1427.75  34.542  23.581
1428.25  34.542  23.581
1428.75  34.542  23.581
1429.25  34.659  23.550
1429.75  34.425  23.581
1430.25  34.659  23.612
1430.75  34.542  23.581
1431.25  34.659  23.550
1431.75  34.425  23.550
1432.25  34.542  23.612
1432.75  34.542  23.581
1433.25  34.659  23.581
1433.75  34.659  23.581
1434.25  34.659  23.520
1434.75  34.542  23.612
1435.25  34.659  23.550
1435.75  34.542  23.581
1436.25  34.542  23.489
1436.75  34.659  23.581
1437.25  34.659  23.581
1437.75  34.542  23.581
1438.25  34.776  23.612
1438.75  34.542  23.581
1439.25  34.659  23.612
1439.75  34.542  23.581
1440.25  34.659  23.612
1440.75  34.659  23.581
1441.25  34.542  23.581
1441.75  34.659  23.612
1442.25  34.659  23.581
1442.75  34.659  23.581
1443.25  34.659  23.612
1443.75  34.659  23.612
1444.25  34.542  23.581
1444.75  34.659  23.612
1445.25  34.542  23.581
1445.75  34.659  23.612
1446.25  34.659  23.581
1446.75  34.892  23.612
1447.25  34.542  23.581
1447.75  34.659  23.612
1448.25  34.659  23.581
1448.75  34.425  23.581
1449.25  34.542  23.581
1449.75  34.776  23.612
1450.25  34.776  23.581
1450.75  34.776  23.550
1451.25  34.776  23.612
1451.75  34.776  23.581
1452.25  34.659  23.581
1452.75  34.659  23.581
1453.25  34.776  23.581
1453.75  34.776  23.612
1454.25  34.776  23.581
1454.75  34.659  23.581
1455.25  34.776  23.612
1455.75  34.659  23.581
1456.25  34.776  23.581
1456.75  34.659  23.643
1457.25  34.659  23.581
1457.75  34.659  23.581
1458.25  34.892  23.581
1458.75  34.776  23.581
1459.25  34.776  23.612
1459.75  34.542  23.643
1460.25  34.776  23.612
1460.75  34.776  23.581
1461.25  34.659  23.581
1461.75  34.776  23.612
1462.25  34.776  23.581
1462.75  34.776  23.581
1463.25  34.776  23.581
1463.75  34.659  23.581
1464.25  34.776  23.550
1464.75  34.659  23.550
1465.25  34.892  23.612
1465.75  34.892  23.581
1466.25  34.776  23.581
1466.75  34.776  23.612
1467.25  34.659  23.581
1467.75  34.776  23.581
1468.25  34.776  23.612
1468.75  34.776  23.581
1469.25  34.892  23.581
1469.75  34.776  23.612
1470.25  34.776  23.643
1470.75  34.776  23.550
1471.25  34.659  23.612
1471.75  34.776  23.581
1472.25  34.776  23.612
1472.75  34.776  23.612
1473.25  34.776  23.612
1473.75  34.776  23.612
1474.25  34.776  23.612
1474.75  34.776  23.581
1475.25  34.776  23.612
1475.75  34.892  23.581
1476.25  34.776  23.612
1476.75  34.659  23.612
1477.25  34.776  23.612
1477.75  34.776  23.612
1478.25  34.659  23.581
1478.75  34.776  23.612
1479.25  34.892  23.612
1479.75  34.542  23.612
1480.25  34.892  23.581
1480.75  34.776  23.643
1481.25  34.892  23.581
1481.75  34.776  23.612
1482.25  34.659  23.643
1482.75  34.776  23.674
1483.25  34.776  23.581
1483.75  34.892  23.550
1484.25  34.892  23.581
1484.75  34.776  23.581
1485.25  34.892  23.612
1485.75  34.776  23.581
1486.25  34.892  23.520
1486.75  34.776  23.612
1487.25  34.892  23.612
1487.75  34.892  23.581
1488.25  35.005  23.612
1488.75  35.069  23.612
1489.25  34.776  23.612
1489.75  34.776  23.612
1490.25  35.005  23.550
1490.75  34.892  23.612
1491.25  34.776  23.612
1491.75  34.892  23.581
1492.25  34.892  23.612
1492.75  34.776  23.612
1493.25  34.776  23.612
1493.75  34.892  23.612
1494.25  34.892  23.581
1494.75  34.892  23.612
1495.25  34.892  23.581
1495.75  34.892  23.612
1496.25  34.892  23.550
1496.75  34.892  23.643
1497.25  34.776  23.612
1497.75  34.892  23.581
1498.25  34.892  23.581
1498.75  35.005  23.612
1499.25  35.005  23.612
1499.75  35.005  23.612
1500.25  34.892  23.674
1500.75  34.892  23.612
1501.25  34.892  23.612
1501.75  34.892  23.612
1502.25  34.892  23.612
1502.75  34.892  23.581
1503.25  34.892  23.612
1503.75  34.776  23.643
1504.25  34.659  23.612
1504.75  35.005  23.581
1505.25  35.005  23.643
1505.75  34.776  23.643
1506.25  34.892  23.612
1506.75  35.005  23.612
1507.25  34.892  23.581
1507.75  34.892  23.643
1508.25  35.005  23.581
1508.75  35.005  23.581
1509.25  35.005  23.612
1509.76  34.892  23.612
1510.26  34.892  23.643
1510.76  35.005  23.612
1511.26  35.005  23.612
1511.76  35.005  23.612
1512.26  35.005  23.612
1512.76  35.005  23.581
1513.26  35.005  23.612
1513.76  35.005  23.612
1514.26  35.005  23.612
1514.76  35.069  23.612
1515.26  35.005  23.612
1515.76  34.776  23.612
1516.26  35.005  23.612
1516.76  35.005  23.643
1517.26  35.069  23.612
1517.76  34.892  23.612
1518.26  35.005  23.581
1518.76  35.133  23.612
1519.26  34.892  23.581
1519.76  35.005  23.643
1520.26  35.005  23.674
1520.76  35.005  23.643
1521.26  35.005  23.612
1521.76  34.892  23.581
1522.26  35.005  23.612
1522.76  34.892  23.612
1523.26  35.005  23.612
1523.76  35.005  23.612
1524.26  34.659  23.612
1524.76  35.005  23.612
1525.26  35.005  23.612
1525.76  35.005  23.612
1526.26  35.005  23.612
1526.76  34.892  23.643
1527.26  35.005  23.643
1527.76  35.005  23.612
1528.26  35.005  23.612
1528.76  35.005  23.612
1529.26  35.069  23.612
1529.76  35.005  23.643
1530.26  35.005  23.643
1530.76  35.005  23.643
1531.26  35.005  23.643
1531.76  34.892  23.612
1532.26  35.005  23.612
1532.76  35.005  23.643
1533.26  35.069  23.612
1533.76  35.069  23.612
1534.26  35.005  23.581
1534.76  35.005  23.643
1535.26  34.892  23.612
1535.76  34.776  23.612
1536.26  34.892  23.643
1536.76  35.069  23.612
1537.26  35.133  23.612
1537.76  35.005  23.612
1538.26  35.005  23.643
1538.76  34.892  23.612
1539.26  35.069  23.643
1539.76  35.005  23.612
1540.26  34.892  23.612
1540.76  35.069  23.612
1541.26  35.069  23.612
1541.76  35.069  23.643
1542.26  34.892  23.643
1542.76  35.197  23.674
1543.26  35.069  23.643
1543.76  35.069  23.581
1544.26  35.069  23.612
1544.76  35.005  23.643
1545.26  35.005  23.612
1545.76  35.069  23.705
1546.26  35.069  23.643
1546.76  35.005  23.612
1547.26  35.069  23.674
1547.76  35.069  23.612
1548.26  35.005  23.612
1548.76  35.133  23.612
1549.26  35.133  23.612
1549.76  35.005  23.612
1550.26  35.069  23.674
1550.76  35.133  23.612
1551.26  35.069  23.643
1551.76  35.069  23.643
1552.26  35.069  23.643
1552.76  35.069  23.612
1553.26  35.069  23.612
1553.76  35.069  23.643
1554.26  35.069  23.581
1554.76  35.069  23.643
1555.26  35.005  23.674
1555.76  35.069  23.612
1556.26  35.133  23.643
1556.76  35.133  23.612
1557.26  35.133  23.643
1557.76  35.069  23.643
1558.26  35.069  23.612
1558.76  35.069  23.643
1559.26  35.069  23.612
1559.76  35.197  23.643
1560.26  35.005  23.612
1560.76  35.069  23.643
1561.26  34.892  23.643
1561.76  35.069  23.643
1562.26  35.069  23.581
1562.76  35.069  23.581
1563.26  35.005  23.612
1563.76  35.069  23.612
1564.26  35.069  23.612
1564.76  35.069  23.643
1565.26  35.133  23.612
1565.76  35.069  23.643
1566.26  35.069  23.612
1566.76  35.133  23.643
1567.26  35.069  23.612
1567.76  35.005  23.643
1568.26  35.005  23.643
1568.76  35.069  23.581
1569.26  35.069  23.674
1569.76  34.892  23.612
1570.26  35.069  23.612
1570.76  35.133  23.612
1571.26  35.069  23.612
1571.76  35.005  23.643
1572.26  35.133  23.643
1572.76  35.133  23.612
1573.26  35.069  23.643
1573.76  35.197  23.612
1574.26  35.133  23.581
1574.76  35.069  23.550
1575.26  35.133  23.581
1575.76  35.133  23.612
1576.26  35.133  23.612
1576.76  35.069  23.643
1577.26  35.133  23.643
1577.76  35.069  23.674
1578.26  35.005  23.643
1578.76  35.133  23.581
1579.26  35.133  23.612
1579.76  35.005  23.612
1580.26  35.069  23.674
1580.76  35.133  23.581
1581.26  35.133  23.612
1581.76  35.069  23.612
1582.26  35.069  23.581
1582.76  35.197  23.612
1583.26  35.133  23.643
1583.76  35.069  23.612
1584.26  35.069  23.643
1584.76  35.197  23.612
1585.26  35.197  23.612
1585.76  35.069  23.643
1586.26  35.069  23.612
1586.76  35.069  23.674
1587.26  35.197  23.612
1587.76  35.133  23.612
1588.26  35.133  23.643
1588.76  35.133  23.612
1589.26  35.133  23.643
1589.76  35.133  23.612
1590.26  35.133  23.612
1590.76  35.133  23.643
1591.26  35.133  23.612
1591.76  35.261  23.643
1592.26  35.197  23.643
1592.76  35.197  23.643
1593.26  35.261  23.643
1593.76  35.133  23.612
1594.26  35.197  23.674
1594.76  35.261  23.612
1595.26  35.261  23.674
1595.76  35.261  23.643
1596.26  35.325  23.643
1596.76  35.197  23.643
1597.26  35.197  23.643
1597.76  35.261  23.581
1598.26  35.261  23.643
1598.76  35.261  23.643
1599.26  35.325  23.643
1599.76  35.325  23.612
1600.26  35.261  23.643
1600.76  35.325  23.612
1601.26  35.261  23.643
1601.76  35.389  23.674
1602.26  35.325  23.643
1602.76  35.325  23.643
1603.26  35.325  23.674
1603.76  35.325  23.643
1604.26  35.325  23.643
1604.76  35.453  23.643
1605.26  35.325  23.643
1605.76  35.389  23.643
1606.26  35.325  23.643
1606.76  35.389  23.643
1607.26  35.325  23.643
1607.76  35.325  23.612
1608.26  35.453  23.612
1608.76  35.389  23.643
1609.26  35.325  23.643
1609.76  35.389  23.643
1610.26  35.517  23.674
1610.76  35.389  23.643
1611.26  35.389  23.612
1611.76  35.389  23.612
1612.26  35.389  23.581
1612.76  35.389  23.612
1613.26  35.517  23.643
1613.76  35.453  23.612
1614.26  35.389  23.643
1614.76  35.453  23.643
1615.26  35.389  23.612
1615.76  35.453  23.612
1616.26  35.325  23.612
1616.76  35.389  23.581
1617.26  35.389  23.612
1617.76  35.325  23.612
1618.26  35.453  23.612
1618.76  35.389  23.612
1619.26  35.389  23.612
1619.76  35.389  23.643
1620.26  35.389  23.643
1620.76  35.453  23.612
1621.26  35.389  23.612
1621.76  35.453  23.643
1622.26  35.389  23.612
1622.77  35.453  23.612
1623.27  35.517  23.643
1623.77  35.453  23.643
1624.27  35.389  23.643
1624.77  35.581  23.643
1625.27  35.389  23.674
1625.77  35.517  23.612
1626.27  35.389  23.612
1626.77  35.453  23.581
1627.27  35.645  23.612
1627.77  35.517  23.612
1628.27  35.389  23.674
1628.77  35.389  23.643
1629.27  35.581  23.643
1629.77  35.389  23.643
1630.27  35.453  23.612
1630.77  35.453  23.643
1631.27  35.453  23.643
1631.77  35.453  23.612
1632.27  35.453  23.612
1632.77  35.453  23.643
1633.27  35.325  23.674
1633.77  35.517  23.612
1634.27  35.517  23.643
1634.77  35.517  23.643
1635.27  35.581  23.674
1635.77  35.517  23.643
1636.27  35.389  23.643
1636.77  35.517  23.674
1637.27  35.517  23.612
1637.77  35.517  23.674
1638.27  35.517  23.643
1638.77  35.517  23.643
1639.27  35.517  23.643
1639.77  35.517  23.643
1640.27  35.517  23.643
1640.77  35.581  23.612
1641.27  35.453  23.581
1641.77  35.581  23.643
1642.27  35.517  23.612
1642.77  35.453  23.612
1643.27  35.581  23.643
1643.77  35.517  23.612
1644.27  35.453  23.674
1644.77  35.517  23.612
1645.27  35.709  23.674
1645.77  35.517  23.643
1646.27  35.517  23.643
1646.77  35.517  23.643
1647.27  35.517  23.612
1647.77  35.517  23.643
1648.27  35.581  23.612
1648.77  35.645  23.581
1649.27  35.517  23.643
1649.77  35.453  23.643
1650.27  35.581  23.612
1650.77  35.517  23.612
1651.27  35.581  23.643
1651.77  35.517  23.643
1652.27  35.517  23.643
1652.77  35.517  23.612
1653.27  35.517  23.643
1653.77  35.517  23.643
1654.27  35.581  23.643
1654.77  35.517  23.612
1655.27  35.581  23.612
1655.77  35.773  23.674
1656.27  35.517  23.643
1656.77  35.581  23.643
1657.27  35.645  23.643
1657.77  35.517  23.612
1658.27  35.517  23.643
1658.77  35.517  23.612
1659.27  35.581  23.643
1659.77  35.709  23.643
1660.27  35.517  23.643
1660.77  35.517  23.643
1661.27  35.581  23.643
1661.77  35.517  23.643
1662.27  35.517  23.612
1662.77  35.517  23.643
1663.27  35.517  23.612
1663.77  35.517  23.581
1664.27  35.581  23.612
1664.77  35.581  23.612
1665.27  35.581  23.643
1665.77  35.645  23.643
1666.27  35.581  23.643
1666.77  35.581  23.643
1667.27  35.581  23.643
1667.77  35.581  23.643
1668.27  35.517  23.643
1668.77  35.645  23.643
1669.27  35.581  23.643
1669.77  35.581  23.612
1670.27  35.581  23.643
1670.77  35.581  23.643
1671.27  35.645  23.674
1671.77  35.581  23.612
1672.27  35.581  23.612
1672.77  35.581  23.643
1673.27  35.645  23.643
1673.77  35.645  23.612
1674.27  35.581  23.643
1674.77  35.581  23.643
1675.27  35.645  23.612
1675.77  35.581  23.612
1676.27  35.581  23.612
1676.77  35.581  23.643
1677.27  35.709  23.612
1677.77  35.645  23.612
1678.27  35.645  23.643
1678.77  35.645  23.643
1679.27  35.645  23.643
1679.77  35.581  23.643
1680.27  35.581  23.643
1680.77  35.581  23.643
1681.27  35.581  23.612
1681.77  35.581  23.612
1682.27  35.645  23.612
1682.77  35.645  23.643
1683.27  35.645  23.643
1683.77  35.645  23.612
1684.27  35.645  23.612
1684.77  35.645  23.643
1685.27  35.645  23.674
1685.77  35.709  23.643
1686.27  35.645  23.674
1686.77  35.709  23.643
1687.27  35.581  23.643
1687.77  35.645  23.674
1688.27  35.645  23.643
1688.77  35.645  23.674
1689.27  35.645  23.643
1689.77  35.581  23.612
1690.27  35.645  23.643
1690.77  35.581  23.612
1691.27  35.645  23.612
1691.77  35.581  23.581
1692.27  35.645  23.674
1692.77  35.645  23.643
1693.27  35.645  23.643
1693.77  35.581  23.674
1694.27  35.645  23.674
1694.77  35.645  23.612
1695.27  35.645  23.643
1695.77  35.645  23.643
1696.27  35.645  23.643
1696.77  35.709  23.674
1697.27  35.645  23.643
1697.77  35.709  23.612
1698.27  35.581  23.674
1698.77  35.645  23.674
1699.27  35.645  23.643
1699.77  35.645  23.643
1700.27  35.709  23.612
1700.77  35.645  23.674
1701.27  35.709  23.643
1701.77  35.709  23.643
1702.27  35.709  23.643
1702.77  35.709  23.643
1703.27  35.645  23.643
1703.77  35.709  23.643
1704.27  35.837  23.612
1704.77  35.645  23.643
1705.27  35.581  23.674
1705.77  35.709  23.674
1706.27  35.709  23.643
1706.77  35.645  23.643
1707.27  35.709  23.674
1707.77  35.645  23.643
1708.27  35.645  23.643
1708.77  35.773  23.674
1709.27  35.645  23.643
1709.77  35.645  23.643
1710.27  35.581  23.674
1710.77  35.709  23.674
1711.27  35.645  23.674
1711.77  35.709  23.643
1712.27  35.645  23.643
1712.77  35.709  23.643
1713.27  35.709  23.643
1713.77  35.709  23.643
1714.27  35.709  23.643
1714.77  35.581  23.643
1715.27  35.709  23.643
1715.77  35.773  23.643
1716.27  35.645  23.643
1716.77  35.709  23.643
1717.27  35.709  23.643
1717.77  35.709  23.643
1718.27  35.709  23.643
1718.77  35.709  23.643
1719.27  35.645  23.581
1719.77  35.709  23.643
1720.27  35.645  23.643
1720.77  35.709  23.643
1721.27  35.709  23.643
1721.77  35.709  23.643
1722.27  35.709  23.674
1722.77  35.709  23.643
1723.27  35.709  23.643
1723.77  35.645  23.674
1724.27  35.645  23.643
1724.77  35.581  23.643
1725.27  35.709  23.674
1725.77  35.773  23.612
1726.27  35.645  23.674
1726.77  35.709  23.674
1727.27  35.709  23.674
1727.77  35.709  23.643
1728.27  35.901  23.643
1728.77  35.645  23.674
1729.27  35.709  23.643
1729.77  35.645  23.674
1730.27  35.709  23.643
1730.77  35.709  23.643
1731.27  35.773  23.674
1731.77  35.709  23.674
1732.27  35.709  23.643
1732.77  35.773  23.643
1733.27  35.773  23.674
1733.77  35.773  23.643
1734.27  35.709  23.643
1734.77  35.645  23.674
1735.27  35.709  23.643
1735.77  35.709  23.643
1736.28  35.645  23.674
1736.78  35.709  23.674
1737.28  35.709  23.643
1737.78  35.773  23.643
1738.28  35.709  23.643
1738.78  35.709  23.643
1739.28  35.581  23.643
1739.78  35.709  23.643
1740.28  35.709  23.674
1740.78  35.773  23.643
1741.28  35.773  23.674
1741.78  35.709  23.612
1742.28  35.773  23.674
1742.78  35.773  23.643
1743.28  35.709  23.612
1743.78  35.773  23.643
1744.28  35.837  23.643
1744.78  35.773  23.643
1745.28  35.709  23.674
1745.78  35.837  23.643
1746.28  35.773  23.735
1746.78  35.645  23.705
1747.28  35.773  23.643
1747.78  35.773  23.674
1748.28  35.837  23.674
1748.78  35.837  23.674
1749.28  35.773  23.674
1749.78  35.773  23.612
1750.28  35.837  23.643
1750.78  35.773  23.674
1751.28  35.773  23.674
1751.78  35.773  23.674
1752.28  35.709  23.643
1752.78  35.709  23.643
1753.28  35.709  23.643
1753.78  35.709  23.643
1754.28  35.773  23.674
1754.78  35.709  23.674
1755.28  35.709  23.735
1755.78  35.709  23.643
1756.28  35.773  23.674
1756.78  35.773  23.674
1757.28  35.773  23.674
1757.78  35.773  23.674
1758.28  35.773  23.612
1758.78  35.837  23.674
1759.28  35.837  23.643
1759.78  35.773  23.674
1760.28  35.773  23.674
1760.78  35.709  23.612
1761.28  35.837  23.705
1761.78  35.773  23.643
1762.28  35.773  23.674
1762.78  35.773  23.612
1763.28  35.773  23.612
1763.78  35.773  23.674
1764.28  35.645  23.674
1764.78  35.837  23.674
1765.28  35.773  23.674
1765.78  35.773  23.643
1766.28  35.837  23.674
1766.78  35.837  23.674
1767.28  35.709  23.643
1767.78  35.837  23.674
1768.28  35.773  23.643
1768.78  35.773  23.674
1769.28  35.773  23.705
1769.78  35.837  23.674
1770.28  35.773  23.674
1770.78  35.837  23.674
1771.28  35.773  23.674
1771.78  35.773  23.643
1772.28  35.773  23.674
1772.78  35.773  23.643
1773.28  35.773  23.674
1773.78  35.837  23.643
1774.28  35.773  23.674
1774.78  35.773  23.643
1775.28  35.773  23.674
1775.78  35.837  23.674
1776.28  35.837  23.674
1776.78  35.837  23.674
1777.28  35.773  23.674
1777.78  35.773  23.674
1778.28  35.773  23.643
1778.78  35.709  23.674
1779.28  35.773  23.674
1779.78  35.837  23.674
1780.28  35.837  23.705
1780.78  35.773  23.674
1781.28  35.709  23.705
1781.78  35.773  23.643
1782.28  35.773  23.643
1782.78  35.901  23.643
1783.28  35.773  23.674
1783.78  35.773  23.705
1784.28  35.773  23.674
1784.78  35.901  23.674
1785.28  35.773  23.643
1785.78  35.773  23.674
1786.28  35.837  23.643
1786.78  35.837  23.674
1787.28  35.773  23.674
1787.78  35.837  23.643
1788.28  35.837  23.643
1788.78  35.837  23.643
1789.28  35.837  23.674
1789.78  35.709  23.643
1790.28  35.773  23.643
1790.78  35.837  23.643
1791.28  35.773  23.674
1791.78  35.773  23.643
1792.28  35.901  23.674
1792.78  35.773  23.674
1793.28  35.837  23.612
1793.78  35.901  23.643
1794.28  35.901  23.643
1794.78  35.773  23.674
1795.28  35.837  23.643
1795.78  35.837  23.643
1796.28  35.837  23.674
1796.78  35.773  23.674
1797.28  35.773  23.674
1797.78  35.837  23.674
1798.28  35.837  23.735
1798.78  35.837  23.674
1799.28  35.837  23.674
1799.78  35.901  23.674
1800.28  35.837  23.674
1800.78  35.837  23.643
1801.28  35.837  23.674
1801.78  35.837  23.674
1802.28  35.837  23.705
1802.78  35.901  23.674
1803.28  35.837  23.735
1803.78  35.901  23.674
1804.28  35.837  23.674
1804.78  35.837  23.643
1805.28  35.901  23.612
1805.78  35.837  23.674
1806.28  35.901  23.643
1806.78  35.837  23.674
1807.28  35.837  23.674
1807.78  35.901  23.674
1808.28  35.901  23.674
1808.78  35.837  23.643
1809.28  35.901  23.612
1809.78  35.837  23.643
1810.28  35.901  23.674
1810.78  35.901  23.735
1811.28  35.837  23.674
1811.78  35.901  23.674
1812.28  35.901  23.735
1812.78  35.901  23.705
1813.28  35.837  23.674
1813.78  35.837  23.674
1814.28  35.837  23.674
1814.78  35.837  23.705
1815.28  35.901  23.674
1815.78  35.965  23.674
1816.28  35.901  23.674
1816.78  35.837  23.674
1817.28  35.901  23.705
1817.78  35.901  23.705
1818.28  35.901  23.705
1818.78  35.901  23.674
1819.28  35.901  23.674
1819.78  35.901  23.705
1820.28  35.901  23.735
1820.78  35.901  23.674
1821.28  35.837  23.674
1821.78  35.837  23.674
1822.28  35.837  23.674
1822.78  35.837  23.705
1823.28  35.965  23.674
1823.78  36.029  23.674
1824.28  35.901  23.674
1824.78  35.837  23.643
1825.28  35.901  23.674
1825.78  35.901  23.705
1826.28  35.965  23.674
1826.78  35.901  23.643
1827.28  35.837  23.643
1827.78  35.901  23.674
1828.28  35.837  23.705
1828.78  35.965  23.674
1829.28  35.901  23.674
1829.78  35.837  23.674
1830.28  35.965  23.674
1830.78  35.901  23.643
1831.28  35.837  23.705
1831.78  35.837  23.674
1832.28  35.901  23.674
1832.78  35.901  23.674
1833.28  35.901  23.674
1833.78  35.901  23.674
1834.28  35.837  23.674
1834.78  35.901  23.705
1835.28  35.965  23.674
1835.78  35.901  23.705
1836.28  35.965  23.674
1836.78  35.901  23.674
1837.28  35.837  23.643
1837.78  35.901  23.735
1838.28  35.901  23.705
1838.78  35.901  23.674
1839.28  35.837  23.705
1839.78  35.965  23.674
1840.28  35.837  23.735
1840.78  35.965  23.674
1841.28  35.773  23.674
1841.78  35.901  23.674
1842.28  35.965  23.674
1842.78  35.837  23.643
1843.28  35.901  23.674
1843.78  35.901  23.674
1844.28  35.901  23.674
1844.78  35.965  23.643
1845.28  35.965  23.674
1845.78  35.901  23.674
1846.28  35.901  23.674
1846.78  35.965  23.705
1847.28  35.901  23.674
1847.78  35.901  23.674
1848.28  35.901  23.674
1848.78  35.901  23.735
1849.29  35.901  23.674
1849.79  35.901  23.674
1850.29  35.965  23.674
1850.79  35.901  23.674
1851.29  35.965  23.705
1851.79  35.965  23.674
1852.29  35.965  23.643
1852.79  35.965  23.674
1853.29  35.901  23.705
1853.79  35.965  23.674
1854.29  35.901  23.674
1854.79  35.837  23.705
1855.29  36.093  23.674
1855.79  35.901  23.705
1856.29  35.965  23.674
1856.79  35.901  23.674
1857.29  35.965  23.674
1857.79  35.901  23.705
1858.29  35.901  23.705
1858.79  35.901  23.705
1859.29  35.965  23.674
1859.79  35.965  23.674
1860.29  35.965  23.705
1860.79  35.837  23.705
1861.29  35.965  23.735
1861.79  36.029  23.643
1862.29  35.901  23.674
1862.79  35.965  23.735
1863.29  35.965  23.705
1863.79  35.901  23.705
1864.29  35.965  23.735
1864.79  35.965  23.674
1865.29  35.837  23.674
1865.79  36.029  23.674
1866.29  35.965  23.705
1866.79  35.965  23.735
1867.29  35.965  23.674
1867.79  35.965  23.674
1868.29  35.901  23.705
1868.79  35.901  23.705
1869.29  36.029  23.674
1869.79  36.029  23.705
1870.29  36.029  23.705
1870.79  35.965  23.674
1871.29  35.965  23.705
1871.79  35.965  23.705
1872.29  36.029  23.705
1872.79  35.965  23.674
1873.29  35.901  23.643
1873.79  35.965  23.674
1874.29  35.901  23.674
1874.79  35.965  23.705
1875.29  35.901  23.705
1875.79  35.965  23.674
1876.29  35.965  23.705
1876.79  35.965  23.705
1877.29  35.965  23.674
1877.79  35.965  23.705
1878.29  35.965  23.705
1878.79  35.965  23.705
1879.29  35.901  23.735
1879.79  35.965  23.705
1880.29  36.029  23.705
1880.79  35.965  23.674
1881.29  35.965  23.674
1881.79  35.837  23.674
1882.29  35.965  23.643
1882.79  36.029  23.705
1883.29  35.965  23.643
1883.79  35.901  23.674
1884.29  35.901  23.705
1884.79  35.965  23.674
1885.29  36.029  23.643
1885.79  36.029  23.674
1886.29  35.965  23.705
1886.79  35.965  23.705
1887.29  35.965  23.735
1887.79  36.029  23.705
1888.29  35.901  23.674
1888.79  35.901  23.674
1889.29  35.965  23.705
1889.79  35.965  23.674
1890.29  35.965  23.674
1890.79  36.029  23.674
1891.29  36.029  23.705
1891.79  35.965  23.643
1892.29  35.965  23.705
1892.79  35.965  23.674
1893.29  35.965  23.674
1893.79  36.029  23.674
1894.29  35.901  23.705
1894.79  36.029  23.643
1895.29  36.029  23.705
1895.79  35.965  23.705
1896.29  35.965  23.674
1896.79  36.029  23.643
1897.29  35.965  23.674
1897.79  36.029  23.674
1898.29  36.029  23.735
1898.79  35.965  23.705
1899.29  36.029  23.643
1899.79  36.093  23.674
1900.29  36.029  23.674
1900.79  36.029  23.705
1901.29  36.029  23.674
1901.79  35.965  23.674
1902.29  36.029  23.705
1902.79  36.029  23.705
1903.29  36.029  23.674
1903.79  36.029  23.705
1904.29  35.965  23.735
1904.79  36.093  23.705
1905.29  36.029  23.674
1905.79  36.029  23.735
1906.29  35.965  23.674
1906.79  36.029  23.705
1907.29  36.029  23.735
1907.79  35.965  23.705
1908.29  36.029  23.705
1908.79  36.029  23.705
1909.29  35.965  23.705
1909.79  36.093  23.705
1910.29  36.093  23.705
1910.79  36.093  23.735
1911.29  36.029  23.705
1911.79  35.965  23.674
1912.29  36.093  23.705
1912.79  36.093  23.674
1913.29  36.029  23.643
1913.79  36.029  23.705
1914.29  35.965  23.643
1914.79  36.029  23.643
1915.29  36.029  23.705
1915.79  36.029  23.705
1916.29  36.029  23.705
1916.79  36.029  23.735
1917.29  36.029  23.735
1917.79  36.029  23.705
1918.29  36.029  23.674
1918.79  36.029  23.705
1919.29  36.029  23.705
1919.79  36.029  23.705
1920.29  36.029  23.674
1920.79  36.029  23.674
1921.29  35.965  23.735
1921.79  36.029  23.735
1922.29  36.029  23.735
1922.79  36.029  23.674
1923.29  36.157  23.735
1923.79  36.093  23.705
1924.29  36.029  23.705
1924.79  36.029  23.705
1925.29  36.029  23.674
1925.79  36.029  23.674
1926.29  36.029  23.705
1926.79  36.029  23.705
1927.29  36.093  23.705
1927.79  36.093  23.705
1928.29  36.157  23.735
1928.79  36.093  23.705
1929.29  35.965  23.735
1929.79  36.093  23.705
1930.29  36.093  23.705
1930.79  36.093  23.674
1931.29  36.221  23.705
1931.79  36.157  23.674
1932.29  36.029  23.674
1932.79  36.093  23.735
1933.29  36.093  23.705
1933.79  36.093  23.705
1934.29  36.093  23.705
1934.79  36.093  23.674
1935.29  36.029  23.643
1935.79  36.029  23.705
1936.29  36.029  23.705
1936.79  36.029  23.705
1937.29  36.029  23.674
1937.79  36.029  23.705
1938.29  36.029  23.705
1938.79  36.093  23.705
1939.29  36.029  23.612
1939.79  36.157  23.674
1940.29  36.093  23.643
1940.79  36.093  23.705
1941.29  36.093  23.674
1941.79  36.093  23.705
1942.29  36.093  23.705
1942.79  36.093  23.674
1943.29  36.093  23.735
1943.79  36.157  23.705
1944.29  36.093  23.674
1944.79  36.093  23.705
1945.29  36.157  23.705
1945.79  36.093  23.705
1946.29  36.093  23.797
1946.79  35.965  23.705
1947.29  36.157  23.705
1947.79  36.157  23.705
1948.29  36.221  23.705
1948.79  36.093  23.735
1949.29  36.029  23.705
1949.79  36.157  23.705
1950.29  36.093  23.674
1950.79  36.093  23.705
1951.29  36.029  23.674
1951.79  36.093  23.705
1952.29  36.093  23.705
1952.79  36.093  23.674
1953.29  36.157  23.705
1953.79  36.093  23.705
1954.29  36.093  23.705
1954.79  36.093  23.674
1955.29  36.157  23.735
1955.79  36.093  23.705
1956.29  36.093  23.674
1956.79  36.093  23.674
1957.29  36.093  23.705
1957.79  36.093  23.705
1958.29  36.093  23.705
1958.79  36.093  23.705
1959.29  36.093  23.735
1959.79  36.157  23.674
1960.29  36.093  23.766
1960.79  36.157  23.735
1961.29  36.221  23.705
1961.79  36.093  23.735
1962.30  36.157  23.705
1962.80  36.157  23.705
1963.30  36.157  23.705
1963.80  36.157  23.705
1964.30  36.093  23.705
1964.80  36.093  23.674
1965.30  36.157  23.705
1965.80  36.093  23.766
1966.30  36.221  23.705
1966.80  36.157  23.705
1967.30  36.157  23.705
1967.80  36.157  23.705
1968.30  36.157  23.705
1968.80  36.093  23.705
1969.30  36.221  23.766
1969.80  36.157  23.705
1970.30  36.029  23.674
1970.80  36.349  23.766
1971.30  36.157  23.705
1971.80  36.093  23.674
1972.30  36.093  23.705
1972.80  36.221  23.735
1973.30  36.029  23.705
1973.80  36.157  23.705
1974.30  36.157  23.705
1974.80  36.157  23.735
1975.30  36.157  23.705
1975.80  36.157  23.735
1976.30  36.157  23.735
1976.80  36.093  23.705
1977.30  36.221  23.705
1977.80  36.157  23.735
1978.30  36.157  23.735
1978.80  36.221  23.735
1979.30  36.157  23.705
1979.80  36.157  23.705
1980.30  36.157  23.735
1980.80  36.093  23.735
1981.30  36.157  23.705
1981.80  36.157  23.735
1982.30  36.157  23.705
1982.80  36.221  23.766
1983.30  36.157  23.705
1983.80  36.221  23.674
1984.30  36.157  23.735
1984.80  36.221  23.735
1985.30  36.221  23.735
1985.80  36.157  23.705
1986.30  36.157  23.643
1986.80  36.157  23.705
1987.30  36.157  23.766
1987.80  36.157  23.705
1988.30  36.157  23.705
1988.80  36.221  23.735
1989.30  36.157  23.735
1989.80  36.157  23.705
1990.30  36.221  23.674
1990.80  36.157  23.705
1991.30  36.221  23.705
1991.80  36.157  23.735
1992.30  36.093  23.705
1992.80  36.157  23.705
1993.30  36.221  23.735
1993.80  36.221  23.705
1994.30  36.157  23.674
1994.80  36.093  23.705
1995.30  36.157  23.766
1995.80  36.157  23.705
1996.30  36.221  23.643
1996.80  36.157  23.735
1997.30  36.157  23.735
1997.80  36.221  23.705
1998.30  36.157  23.705
1998.80  36.221  23.674
1999.30  36.157  23.705
1999.80  36.285  23.705
2000.30  36.157  23.705
2000.80  36.157  23.705
2001.30  36.221  23.735
2001.80  36.157  23.705
2002.30  36.157  23.705
2002.80  36.157  23.705
2003.30  36.157  23.705
2003.80  36.157  23.705
2004.30  36.221  23.705
2004.80  36.221  23.735
2005.30  36.221  23.735
2005.80  36.157  23.705
2006.30  36.157  23.705
2006.80  36.157  23.705
2007.30  36.093  23.705
2007.80  36.157  23.705
2008.30  36.221  23.705
2008.80  36.221  23.735
2009.30  36.221  23.705
2009.80  36.221  23.735
2010.30  36.221  23.705
2010.80  36.221  23.705
2011.30  36.157  23.735
2011.80  36.221  23.705
2012.30  36.157  23.735
2012.80  36.349  23.705
2013.30  36.221  23.674
2013.80  36.221  23.705
2014.30  36.221  23.705
2014.80  36.221  23.705
2015.30  36.221  23.705
2015.80  36.221  23.674
2016.30  36.221  23.735
2016.80  36.221  23.735
2017.30  36.221  23.705
2017.80  36.221  23.705
2018.30  36.221  23.705
2018.80  36.221  23.705
2019.30  36.221  23.735
2019.80  36.157  23.705
2020.30  36.157  23.735
2020.80  36.221  23.735
2021.30  36.221  23.705
2021.80  36.157  23.735
2022.30  36.221  23.735
2022.80  36.157  23.735
2023.30  36.221  23.674
2023.80  36.221  23.674
2024.30  36.285  23.705
2024.80  36.157  23.705
2025.30  36.285  23.705
2025.80  36.221  23.735
2026.30  36.285  23.705
2026.80  36.221  23.735
2027.30  36.285  23.735
2027.80  36.221  23.735
2028.30  36.221  23.674
2028.80  36.221  23.705
2029.30  36.221  23.705
2029.80  36.221  23.705
2030.30  36.285  23.705
2030.80  36.221  23.735
2031.30  36.221  23.705
2031.80  36.157  23.705
2032.30  36.285  23.705
2032.80  36.413  23.766
2033.30  36.285  23.735
2033.80  36.221  23.705
2034.30  36.221  23.705
2034.80  36.221  23.735
2035.30  36.285  23.735
2035.80  36.157  23.705
2036.30  36.349  23.705
2036.80  36.157  23.735
2037.30  36.285  23.705
2037.80  36.285  23.705
2038.30  36.221  23.705
2038.80  36.221  23.705
2039.30  36.285  23.735
2039.80  36.285  23.705
2040.30  36.221  23.735
2040.80  36.157  23.705
2041.30  36.285  23.735
2041.80  36.285  23.705
2042.30  36.221  23.735
2042.80  36.221  23.705
2043.30  36.157  23.705
2043.80  36.285  23.705
2044.30  36.285  23.705
2044.80  36.221  23.735
2045.30  36.285  23.735
2045.80  36.221  23.705
2046.30  36.221  23.735
2046.80  36.285  23.766
2047.30  36.285  23.735
2047.80  36.349  23.735
2048.30  36.221  23.735
2048.80  36.349  23.735
2049.30  36.349  23.705
2049.80  36.285  23.735
2050.30  36.285  23.735
2050.80  36.221  23.705
2051.30  36.285  23.705
2051.80  36.285  23.705
2052.30  36.285  23.766
2052.80  36.349  23.766
2053.30  36.349  23.735
2053.80  36.285  23.705
2054.30  36.349  23.766
2054.80  36.349  23.705
2055.30  36.285  23.735
2055.80  36.285  23.735
2056.30  36.349  23.735
2056.80  36.285  23.735
2057.30  36.349  23.766
2057.80  36.349  23.735
2058.30  36.285  23.735
2058.80  36.285  23.705
2059.30  36.349  23.735
2059.80  36.285  23.705
2060.30  36.285  23.735
2060.80  36.349  23.766
2061.30  36.285  23.735
2061.80  36.349  23.735
2062.30  36.285  23.705
2062.80  36.285  23.735
2063.30  36.349  23.705
2063.80  36.349  23.735
2064.30  36.349  23.735
2064.80  36.285  23.735
2065.30  36.285  23.735
2065.80  36.285  23.735
2066.30  36.285  23.735
2066.80  36.349  23.766
2067.30  36.349  23.766
2067.80  36.349  23.705
2068.30  36.413  23.735
2068.80  36.413  23.766
2069.30  36.349  23.735
2069.80  36.349  23.735
2070.30  36.349  23.735
2070.80  36.349  23.735
2071.30  36.285  23.735
2071.80  36.349  23.735
2072.30  36.413  23.735
2072.80  36.349  23.705
2073.30  36.349  23.735
2073.80  36.349  23.735
2074.30  36.413  23.735
2074.80  36.349  23.735
2075.30  36.349  23.735
2075.80  36.413  23.735
2076.30  36.285  23.705
2076.80  36.349  23.735
2077.30  36.349  23.766
2077.80  36.413  23.797
2078.30  36.349  23.735
2078.80  36.413  23.766
2079.30  36.349  23.735
2079.80  36.349  23.766
2080.30  36.413  23.735
2080.80  36.413  23.735
2081.30  36.349  23.735
2081.80  36.477  23.705
2082.30  36.413  23.735
2082.80  36.349  23.735
2083.30  36.413  23.735
2083.80  36.413  23.766
2084.30  36.477  23.735
2084.80  36.349  23.735
2085.30  36.349  23.766
2085.80  36.413  23.735
2086.31  36.413  23.735
2086.81  36.285  23.735
2087.31  36.349  23.735
2087.81  36.285  23.766
2088.31  36.413  23.735
2088.81  36.349  23.735
2089.31  36.413  23.735
2089.81  36.413  23.766
2090.31  36.349  23.766
2090.81  36.413  23.705
2091.31  36.477  23.705
2091.81  36.413  23.766
2092.31  36.413  23.735
2092.81  36.413  23.705
2093.31  36.413  23.735
2093.81  36.349  23.735
2094.31  36.413  23.766
2094.81  36.413  23.735
2095.31  36.413  23.735
2095.81  36.413  23.674
2096.31  36.413  23.735
2096.81  36.413  23.797
2097.31  36.413  23.705
2097.81  36.477  23.705
2098.31  36.413  23.705
2098.81  36.413  23.735
2099.31  36.349  23.735
2099.81  36.477  23.766
2100.31  36.413  23.797
2100.81  36.541  23.766
2101.31  36.477  23.735
2101.81  36.413  23.735
2102.31  36.541  23.735
2102.81  36.477  23.735
2103.31  36.413  23.735
2103.81  36.477  23.766
2104.31  36.349  23.735
2104.81  36.349  23.735
2105.31  36.413  23.797
2105.81  36.413  23.797
2106.31  36.413  23.705
2106.81  36.413  23.735
2107.31  36.477  23.735
2107.81  36.413  23.766
2108.31  36.477  23.705
2108.81  36.413  23.735
2109.31  36.477  23.735
2109.81  36.477  23.735
2110.31  36.413  23.766
2110.81  36.413  23.674
2111.31  36.413  23.766
2111.81  36.413  23.705
2112.31  36.477  23.766
2112.81  36.477  23.766
2113.31  36.413  23.735
2113.81  36.477  23.735
2114.31  36.541  23.735
2114.81  36.477  23.735
2115.31  36.413  23.766
2115.81  36.477  23.735
2116.31  36.413  23.735
2116.81  36.477  23.766
2117.31  36.413  23.735
2117.81  36.477  23.766
2118.31  36.477  23.735
2118.81  36.541  23.735
2119.31  36.477  23.735
2119.81  36.477  23.735
2120.31  36.541  23.735
2120.81  36.477  23.735
2121.31  36.541  23.766
2121.81  36.477  23.735
2122.31  36.477  23.735
2122.81  36.477  23.766
2123.31  36.477  23.735
2123.81  36.541  23.735
2124.31  36.477  23.797
2124.81  36.541  23.735
2125.31  36.477  23.766
2125.81  36.413  23.735
2126.31  36.605  23.735
2126.81  36.477  23.705
2127.31  36.477  23.735
2127.81  36.413  23.735
2128.31  36.541  23.797
2128.81  36.541  23.766
2129.31  36.477  23.735
2129.81  36.477  23.735
2130.31  36.477  23.705
2130.81  36.477  23.735
2131.31  36.541  23.735
2131.81  36.541  23.735
2132.31  36.477  23.766
2132.81  36.541  23.705
2133.31  36.541  23.735
2133.81  36.541  23.705
2134.31  36.477  23.735
2134.81  36.413  23.735
2135.31  36.541  23.766
2135.81  36.541  23.735
2136.31  36.477  23.766
2136.81  36.477  23.735
2137.31  36.541  23.735
2137.81  36.477  23.766
2138.31  36.605  23.735
2138.81  36.477  23.735
2139.31  36.541  23.735
2139.81  36.413  23.735
2140.31  36.477  23.735
2140.81  36.669  23.766
2141.31  36.541  23.766
2141.81  36.541  23.766
2142.31  36.477  23.766
2142.81  36.477  23.735
2143.31  36.541  23.735
2143.81  36.477  23.735
2144.31  36.477  23.735
2144.81  36.541  23.735
2145.31  36.541  23.735
2145.81  36.477  23.766
2146.31  36.541  23.735
2146.81  36.541  23.735
2147.31  36.541  23.735
2147.81  36.541  23.735
2148.31  36.541  23.735
2148.81  36.541  23.797
2149.31  36.477  23.766
2149.81  36.541  23.766
2150.31  36.477  23.797
2150.81  36.541  23.735
2151.31  36.541  23.735
2151.81  36.477  23.735
2152.31  36.477  23.766
2152.81  36.413  23.766
2153.31  36.477  23.735
2153.81  36.541  23.766
2154.31  36.541  23.766
2154.81  36.541  23.766
2155.31  36.541  23.766
2155.81  36.477  23.766
2156.31  36.541  23.766
2156.81  36.541  23.705
2157.31  36.541  23.735
2157.81  36.477  23.735
2158.31  36.605  23.766
2158.81  36.541  23.766
2159.31  36.541  23.735
2159.81  36.541  23.735
2160.31  36.541  23.735
2160.81  36.541  23.766
2161.31  36.605  23.735
2161.81  36.541  23.766
2162.31  36.605  23.735
2162.81  36.541  23.766
2163.31  36.541  23.735
2163.81  36.541  23.766
2164.31  36.541  23.766
2164.81  36.477  23.735
2165.31  36.541  23.735
2165.81  36.541  23.735
2166.31  36.605  23.766
2166.81  36.605  23.766
2167.31  36.541  23.766
2167.81  36.605  23.705
2168.31  36.541  23.766
2168.81  36.605  23.735
2169.31  36.605  23.735
2169.81  36.669  23.766
2170.31  36.541  23.766
2170.81  36.605  23.735
2171.31  36.541  23.735
2171.81  36.605  23.735
2172.31  36.605  23.766
2172.81  36.541  23.766
2173.31  36.541  23.766
2173.81  36.605  23.766
2174.31  36.541  23.766
2174.81  36.605  23.735
2175.31  36.669  23.859
2175.81  36.669  23.766
2176.31  36.605  23.735
2176.81  36.605  23.766
2177.31  36.605  23.735
2177.81  36.605  23.766
2178.31  36.541  23.766
2178.81  36.541  23.735
2179.31  36.605  23.766
2179.81  36.541  23.766
2180.31  36.541  23.735
2180.81  36.541  23.766
2181.31  36.477  23.735
2181.81  36.605  23.766
2182.31  36.541  23.766
2182.81  36.605  23.766
2183.31  36.605  23.766
2183.81  36.605  23.766
2184.31  36.541  23.735
2184.81  36.541  23.735
2185.31  36.605  23.766
2185.81  36.605  23.766
2186.31  36.605  23.797
2186.81  36.541  23.766
2187.31  36.605  23.735
2187.81  36.669  23.735
2188.31  36.605  23.766
2188.82  36.541  23.735
2189.32  36.541  23.735
2189.82  36.477  23.735
2190.32  36.605  23.766
2190.82  36.541  23.766
2191.32  36.605  23.766
2191.82  36.605  23.766
2192.32  36.605  23.766
2192.82  36.605  23.735
2193.32  36.605  23.766
2193.82  36.605  23.766
2194.32  36.605  23.705
2194.82  36.605  23.766
2195.32  36.541  23.766
2195.82  36.605  23.735
2196.32  36.605  23.766
2196.82  36.605  23.797
2197.32  36.605  23.766
2197.82  36.605  23.766
2198.32  36.605  23.766
2198.82  36.605  23.766
2199.32  36.541  23.766
2199.82  36.669  23.735
2200.32  36.541  23.766
2200.82  36.541  23.766
2201.32  36.669  23.735
2201.82  36.605  23.766
2202.32  36.669  23.766
2202.82  36.541  23.797
2203.32  36.605  23.735
2203.82  36.669  23.766
2204.32  36.669  23.735
2204.82  36.605  23.797
2205.32  36.605  23.735
2205.82  36.605  23.735
2206.32  36.605  23.797
2206.82  36.541  23.766
2207.32  36.605  23.735
2207.82  36.669  23.766
2208.32  36.605  23.766
2208.82  36.605  23.797
2209.32  36.605  23.766
2209.82  36.669  23.766
2210.32  36.669  23.766
2210.82  36.669  23.766
2211.32  36.669  23.766
2211.82  36.605  23.735
2212.32  36.477  23.766
2212.82  36.605  23.766
2213.32  36.605  23.735
2213.82  36.605  23.766
2214.32  36.605  23.766
2214.82  36.669  23.766
2215.32  36.669  23.797
2215.82  36.605  23.766
2216.32  36.669  23.797
2216.82  36.605  23.766
2217.32  36.797  23.766
2217.82  36.669  23.735
2218.32  36.605  23.766
2218.82  36.669  23.735
2219.32  36.605  23.766
2219.82  36.733  23.766
2220.32  36.669  23.797
2220.82  36.669  23.766
2221.32  36.669  23.797
2221.82  36.669  23.797
2222.32  36.605  23.766
2222.82  36.605  23.797
2223.32  36.733  23.735
2223.82  36.669  23.766
2224.32  36.669  23.828
2224.82  36.669  23.766
2225.32  36.669  23.797
2225.82  36.669  23.766
2226.32  36.669  23.705
2226.82  36.605  23.735
2227.32  36.669  23.766
2227.82  36.669  23.735
2228.32  36.605  23.766
2228.82  36.669  23.766
2229.32  36.669  23.766
2229.82  36.797  23.766
2230.32  36.605  23.766
2230.82  36.605  23.766
2231.32  36.541  23.766
2231.82  36.733  23.766
2232.32  36.669  23.766
2232.82  36.733  23.766
2233.32  36.733  23.828
2233.82  36.669  23.766
2234.32  36.669  23.766
2234.82  36.733  23.766
2235.32  36.605  23.705
2235.82  36.605  23.766
2236.32  36.669  23.766
2236.82  36.669  23.766
2237.32  36.669  23.766
2237.82  36.669  23.735
2238.32  36.669  23.828
2238.82  36.669  23.735
2239.32  36.669  23.766
2239.82  36.669  23.766
2240.32  36.669  23.766
2240.82  36.733  23.828
2241.32  36.669  23.766
2241.82  36.669  23.735
2242.32  36.733  23.735
2242.82  36.669  23.735
2243.32  36.669  23.797
2243.82  36.605  23.766
2244.32  36.669  23.766
2244.82  36.733  23.735
2245.32  36.669  23.766
2245.82  36.669  23.797
2246.32  36.669  23.797
2246.82  36.669  23.797
2247.32  36.733  23.797
2247.82  36.669  23.797
2248.32  36.669  23.766
2248.82  36.669  23.797
2249.32  36.669  23.766
2249.82  36.605  23.766
2250.32  36.733  23.797
2250.82  36.605  23.797
2251.32  36.669  23.766
2251.82  36.669  23.766
2252.32  36.669  23.705
2252.82  36.733  23.766
2253.32  36.605  23.735
2253.82  36.669  23.797
2254.32  36.733  23.766
2254.82  36.669  23.766
2255.32  36.669  23.766
2255.82  36.669  23.797
2256.32  36.669  23.766
2256.82  36.669  23.797
2257.32  36.733  23.735
2257.82  36.669  23.766
2258.32  36.669  23.735
2258.82  36.669  23.766
2259.32  36.669  23.766
2259.82  36.541  23.766
2260.32  36.669  23.766
2260.82  36.669  23.828
2261.32  36.733  23.797
2261.82  36.733  23.797
2262.32  36.605  23.797
2262.82  36.669  23.797
2263.32  36.861  23.797
2263.82  36.669  23.766
2264.32  36.605  23.797
2264.82  36.669  23.797
2265.32  36.733  23.766
2265.82  36.733  23.766
2266.32  36.733  23.735
2266.82  36.669  23.735
2267.32  36.733  23.766
2267.82  36.669  23.766
2268.32  36.733  23.797
2268.82  36.669  23.766
2269.32  36.733  23.766
2269.82  36.733  23.766
2270.32  36.669  23.797
2270.82  36.733  23.766
2271.32  36.733  23.797
2271.82  36.669  23.766
2272.32  36.797  23.797
2272.82  36.797  23.766
2273.32  36.669  23.735
2273.82  36.733  23.766
2274.32  36.733  23.766
2274.82  36.669  23.828
2275.32  36.797  23.735
2275.82  36.733  23.797
2276.32  36.733  23.766
2276.82  36.669  23.766
2277.32  36.797  23.828
2277.82  36.733  23.766
2278.32  36.669  23.766
2278.82  36.669  23.797
2279.32  36.669  23.766
2279.82  36.797  23.797
2280.32  36.797  23.797
2280.82  36.797  23.766
2281.32  36.605  23.766
2281.82  36.733  23.766
2282.32  36.669  23.705
2282.82  36.669  23.797
2283.32  36.861  23.766
2283.82  36.669  23.735
2284.32  36.733  23.797
2284.82  36.669  23.797
2285.32  36.669  23.797
2285.82  36.733  23.766
2286.32  36.669  23.797
2286.82  36.669  23.797
2287.32  36.733  23.797
2287.82  36.669  23.766
2288.32  36.669  23.797
2288.82  36.669  23.797
2289.32  36.669  23.766
2289.82  36.669  23.797
2290.32  36.733  23.797
2290.82  36.733  23.766
2291.32  36.733  23.766
2291.82  36.733  23.797
2292.32  36.733  23.735
2292.82  36.733  23.828
2293.32  36.733  23.766
2293.82  36.733  23.766
2294.32  36.669  23.766
2294.82  36.669  23.797
2295.32  36.733  23.797
2295.82  36.797  23.797
2296.32  36.733  23.828
2296.82  36.733  23.797
2297.32  36.669  23.735
2297.82  36.797  23.797
2298.32  36.733  23.797
2298.82  36.733  23.828
2299.32  36.861  23.797
2299.82  36.797  23.797
2300.32  36.669  23.797
2300.82  36.733  23.735
2301.32  36.733  23.797
2301.82  36.733  23.797
2302.32  36.733  23.797
2302.82  36.733  23.735
2303.32  36.669  23.797
2303.82  36.733  23.797
2304.32  36.733  23.828
2304.82  36.733  23.797
2305.32  36.925  23.766
2305.82  36.669  23.797
2306.32  36.733  23.828
2306.82  36.733  23.797
2307.32  36.733  23.766
2307.82  36.861  23.828
2308.32  36.733  23.766
2308.82  36.733  23.797
2309.32  36.733  23.797
2309.82  36.669  23.797
2310.32  36.733  23.766
2310.82  36.733  23.797
2311.32  36.669  23.797
2311.82  36.733  23.797
2312.32  36.733  23.766
2312.83  36.733  23.735
2313.33  36.733  23.797
2313.83  36.669  23.766
2314.33  36.733  23.766
2314.83  36.733  23.797
2315.33  36.733  23.766
2315.83  36.733  23.797
2316.33  36.733  23.766
2316.83  36.733  23.797
2317.33  36.669  23.797
2317.83  36.733  23.766
2318.33  36.669  23.828
2318.83  36.733  23.797
2319.33  36.797  23.766
2319.83  36.733  23.735
2320.33  36.733  23.766
2320.83  36.669  23.797
2321.33  36.733  23.797
2321.83  36.669  23.766
2322.33  36.733  23.766
2322.83  36.733  23.766
2323.33  36.797  23.797
2323.83  36.733  23.797
2324.33  36.797  23.797
2324.83  36.733  23.766
2325.33  36.797  23.828
2325.83  36.797  23.797
2326.33  36.733  23.797
2326.83  36.733  23.766
2327.33  36.733  23.797
2327.83  36.733  23.766
2328.33  36.797  23.766
2328.83  36.797  23.797
2329.33  36.733  23.797
2329.83  36.733  23.797
2330.33  36.733  23.797
2330.83  36.733  23.797
2331.33  36.669  23.797
2331.83  36.733  23.797
2332.33  36.669  23.766
2332.83  36.797  23.797
2333.33  36.733  23.828
2333.83  36.733  23.797
2334.33  36.797  23.797
2334.83  36.797  23.828
2335.33  36.797  23.797
2335.83  36.669  23.797
2336.33  36.733  23.766
2336.83  36.733  23.797
2337.33  36.797  23.766
2337.83  36.797  23.828
2338.33  36.669  23.797
2338.83  36.797  23.797
2339.33  36.733  23.766
2339.83  36.861  23.766
2340.33  36.733  23.735
2340.83  36.733  23.797
2341.33  36.797  23.797
2341.83  36.733  23.828
2342.33  36.733  23.797
2342.83  36.733  23.797
2343.33  36.797  23.797
2343.83  36.733  23.797
2344.33  36.733  23.797
2344.83  36.733  23.828
2345.33  36.797  23.797
2345.83  36.733  23.766
2346.33  36.797  23.797
2346.83  36.733  23.766
2347.33  36.669  23.766
2347.83  36.733  23.766
2348.33  36.733  23.797
2348.83  36.861  23.797
2349.33  36.797  23.797
2349.83  36.733  23.797
2350.33  36.733  23.766
2350.83  36.925  23.797
2351.33  36.733  23.797
2351.83  36.733  23.797
2352.33  36.733  23.797
2352.83  36.797  23.797
2353.33  36.797  23.797
2353.83  36.797  23.797
2354.33  36.733  23.766
2354.83  36.797  23.766
2355.33  36.797  23.797
2355.83  36.797  23.797
2356.33  36.733  23.797
2356.83  36.733  23.797
2357.33  36.797  23.797
2357.83  36.669  23.797
2358.33  36.797  23.828
2358.83  36.733  23.797
2359.33  36.733  23.828
2359.83  36.733  23.797
2360.33  36.733  23.766
2360.83  36.797  23.797
2361.33  36.797  23.797
2361.83  36.861  23.797
2362.33  36.733  23.797
2362.83  36.797  23.766
2363.33  36.733  23.797
2363.83  36.797  23.797
2364.33  36.797  23.797
2364.83  36.861  23.766
2365.33  36.797  23.797
2365.83  36.733  23.828
2366.33  36.733  23.797
2366.83  36.733  23.797
2367.33  36.733  23.797
2367.83  36.797  23.797
2368.33  36.797  23.797
2368.83  36.797  23.828
2369.33  36.733  23.797
2369.83  36.733  23.797
2370.33  36.733  23.797
2370.83  36.733  23.797
2371.33  36.797  23.797
2371.83  36.797  23.797
2372.33  36.797  23.797
2372.83  36.733  23.797
2373.33  36.733  23.797
2373.83  36.797  23.797
2374.33  36.733  23.766
2374.83  36.733  23.797
2375.33  36.797  23.766
2375.83  36.733  23.766
2376.33  36.733  23.797
2376.83  36.733  23.797
2377.33  36.733  23.797
2377.83  36.733  23.797
2378.33  36.669  23.797
2378.83  36.733  23.797
2379.33  36.733  23.797
2379.83  36.733  23.766
2380.33  36.797  23.797
2380.83  36.733  23.797
2381.33  36.797  23.797
2381.83  36.797  23.828
2382.33  36.797  23.766
2382.83  36.733  23.797
2383.33  36.797  23.766
2383.83  36.797  23.797
2384.33  36.861  23.797
2384.83  36.797  23.797
2385.33  36.669  23.797
2385.83  36.797  23.859
2386.33  36.797  23.797
2386.83  36.797  23.797
2387.33  36.733  23.797
2387.83  36.733  23.828
2388.33  36.669  23.828
2388.83  36.797  23.828
2389.33  36.861  23.797
2389.83  36.733  23.797
2390.33  36.861  23.828
2390.83  36.733  23.766
2391.33  36.797  23.828
2391.83  36.797  23.797
2392.33  36.797  23.828
2392.83  36.797  23.797
2393.33  36.733  23.797
2393.83  36.797  23.797
2394.33  36.861  23.828
2394.83  36.733  23.797
2395.33  36.797  23.766
2395.83  36.733  23.828
2396.33  36.861  23.797
2396.83  36.797  23.797
2397.33  36.797  23.766
2397.83  36.733  23.766
2398.33  36.797  23.797
2398.83  36.733  23.828
2399.33  36.797  23.797
2399.83  36.797  23.766
2400.33  36.797  23.766
2400.83  36.797  23.735
2401.33  36.797  23.797
2401.83  36.797  23.797
2402.33  36.797  23.797
2402.83  36.797  23.797
2403.33  36.669  23.828
2403.83  36.733  23.797
2404.33  36.797  23.797
2404.83  36.797  23.797
2405.33  36.797  23.797
2405.83  36.797  23.828
2406.33  36.797  23.766
2406.83  36.797  23.828
2407.33  36.669  23.766
2407.83  36.733  23.797
2408.33  36.861  23.797
2408.83  36.861  23.828
2409.33  36.797  23.828
2409.83  36.925  23.828
2410.33  36.797  23.828
2410.83  36.797  23.797
2411.33  36.797  23.797
2411.83  36.797  23.797
2412.33  36.797  23.797
2412.83  36.797  23.797
2413.33  36.797  23.797
2413.83  36.797  23.797
2414.33  36.733  23.797
2414.84  36.733  23.797
2415.34  36.861  23.797
2415.84  36.797  23.828
2416.34  36.797  23.797
2416.84  36.797  23.859
2417.34  36.861  23.797
2417.84  36.797  23.797
2418.34  36.733  23.797
2418.84  36.925  23.797
2419.34  36.797  23.766
2419.84  36.797  23.828
2420.34  36.797  23.797
2420.84  36.797  23.797
2421.34  36.797  23.797
2421.84  36.861  23.797
2422.34  36.733  23.859
2422.84  36.861  23.828
2423.34  36.861  23.828
2423.84  36.733  23.828
2424.34  36.797  23.797
2424.84  36.797  23.828
2425.34  36.861  23.828
2425.84  36.861  23.828
2426.34  36.861  23.828
2426.84  36.861  23.828
2427.34  36.797  23.797
2427.84  36.861  23.797
2428.34  36.861  23.797
2428.84  36.797  23.797
2429.34  36.733  23.828
2429.84  36.797  23.797
2430.34  36.797  23.828
2430.84  36.797  23.828
2431.34  36.797  23.828
2431.84  36.925  23.828
2432.34  36.797  23.828
2432.84  36.925  23.828
2433.34  36.797  23.797
2433.84  36.797  23.797
2434.34  36.797  23.828
2434.84  36.797  23.828
2435.34  36.861  23.766
2435.84  36.797  23.828
2436.34  36.861  23.828
2436.84  36.861  23.797
2437.34  36.797  23.828
2437.84  36.861  23.828
2438.34  36.925  23.828
2438.84  36.797  23.797
2439.34  36.861  23.828
2439.84  36.733  23.828
2440.34  36.861  23.828
2440.84  36.925  23.828
2441.34  36.797  23.797
2441.84  36.797  23.797
2442.34  36.797  23.766
2442.84  36.797  23.828
2443.34  36.733  23.797
2443.84  36.797  23.828
2444.34  36.925  23.828
2444.84  36.861  23.766
2445.34  36.861  23.859
2445.84  36.861  23.766
2446.34  36.861  23.797
2446.84  36.861  23.828
2447.34  36.861  23.828
2447.84  36.861  23.828
2448.34  36.861  23.828
2448.84  36.861  23.828
2449.34  36.861  23.828
2449.84  36.861  23.828
2450.34  36.797  23.797
2450.84  36.733  23.828
2451.34  36.925  23.828
2451.84  36.861  23.797
2452.34  36.797  23.828
2452.84  36.797  23.828
2453.34  36.861  23.797
2453.84  36.797  23.797
2454.34  36.925  23.797
2454.84  36.797  23.797
2455.34  36.861  23.828
2455.84  36.733  23.797
2456.34  36.861  23.828
2456.84  36.861  23.828
2457.34  36.861  23.797
2457.84  36.861  23.828
2458.34  36.925  23.828
2458.84  36.861  23.828
2459.34  36.733  23.828
2459.84  36.861  23.797
2460.34  36.861  23.889
2460.84  36.925  23.828
2461.34  36.797  23.828
2461.84  36.861  23.828
2462.34  36.861  23.828
2462.84  36.861  23.828
2463.34  36.797  23.828
2463.84  36.861  23.797
2464.34  36.861  23.828
2464.84  36.797  23.797
2465.34  36.861  23.828
2465.84  36.861  23.797
2466.34  36.861  23.828
2466.84  36.861  23.797
2467.34  36.861  23.828
2467.84  36.861  23.828
2468.34  36.797  23.797
2468.84  36.861  23.828
2469.34  36.861  23.797
2469.84  36.861  23.797
2470.34  36.861  23.828
2470.84  36.861  23.828
2471.34  36.861  23.828
2471.84  36.925  23.797
2472.34  36.797  23.828
2472.84  36.861  23.797
2473.34  36.861  23.766
2473.84  36.797  23.828
2474.34  36.925  23.828
2474.84  36.925  23.828
2475.34  36.861  23.828
2475.84  36.861  23.797
2476.34  36.861  23.859
2476.84  36.861  23.828
2477.34  36.861  23.766
2477.84  36.861  23.828
2478.34  36.925  23.828
2478.84  36.861  23.797
2479.34  36.861  23.889
2479.84  36.861  23.859
2480.34  36.733  23.828
2480.84  36.797  23.797
2481.34  36.925  23.828
2481.84  36.797  23.859
2482.34  36.797  23.797
2482.84  36.861  23.828
2483.34  36.861  23.828
2483.84  36.861  23.828
2484.34  36.861  23.828
2484.84  36.861  23.797
2485.34  36.861  23.797
2485.84  36.861  23.889
2486.34  36.861  23.766
2486.84  36.861  23.828
2487.34  36.861  23.828
2487.84  36.861  23.859
2488.34  36.861  23.828
2488.84  36.861  23.766
2489.34  36.861  23.828
2489.84  36.861  23.797
2490.34  36.797  23.766
2490.84  36.925  23.828
2491.34  36.861  23.828
2491.84  36.925  23.828
2492.34  36.925  23.828
2492.84  36.861  23.828
2493.34  36.861  23.828
2493.84  36.861  23.828
2494.34  36.861  23.797
2494.84  36.861  23.859
2495.34  36.925  23.828
2495.84  36.861  23.859
2496.34  36.861  23.828
2496.84  36.861  23.828
2497.34  36.925  23.828
2497.84  36.861  23.828
2498.34  36.925  23.828
2498.84  36.861  23.828
2499.34  36.861  23.828
2499.84  36.861  23.828
2500.34  36.861  23.828
2500.84  36.925  23.828
2501.34  36.861  23.828
2501.84  36.925  23.920
2502.34  36.925  23.797
2502.84  36.925  23.828
2503.34  36.797  23.828
2503.84  36.861  23.859
2504.34  36.861  23.797
2504.84  36.925  23.797
2505.34  36.925  23.828
