   2.00  24.087  23.859
   2.50  24.087  23.859
   3.00  24.087  23.889
   3.50  24.113  23.859
  45.12  24.375  23.859
  45.62  24.401  23.889
  46.12  24.375  23.828
  46.62  24.375  23.859
  47.12  24.375  23.859
  47.62  24.375  23.889
  48.12  24.348  23.828
  48.62  24.427  23.889
  49.12  24.453  23.859
  49.62  24.479  23.859
  50.12  24.479  23.889
  50.63  24.505  23.859
  51.13  24.505  23.859
  51.63  24.557  23.859
  52.13  24.505  23.889
  52.63  24.557  23.859
  53.13  24.557  23.859
  53.63  24.610  23.859
  54.13  24.583  23.859
  54.63  24.610  23.828
  55.13  24.662  23.889
  55.63  24.662  23.859
  56.13  24.610  23.859
  56.63  24.636  23.828
  57.13  24.662  23.889
  57.63  24.662  23.889
  58.13  24.740  23.889
  58.63  24.688  23.859
  59.13  24.714  23.859
  59.63  24.688  23.889
  60.13  24.714  23.889
  60.63  24.714  23.859
  61.13  24.766  23.889
  61.63  24.740  23.859
  62.13  24.740  23.859
  62.63  24.766  23.859
  63.13  24.740  23.920
  63.63  24.792  23.889
  64.13  24.792  23.859
  64.63  24.792  23.859
  65.13  24.819  23.859
  65.63  24.871  23.859
  66.13  24.792  23.859
  66.63  24.792  23.889
  67.13  24.845  23.859
  67.63  24.819  23.889
  68.13  24.871  23.889
  68.63  24.845  23.889
  69.13  24.871  23.889
  69.63  24.871  23.889
  70.13  24.871  23.859
  70.63  24.871  23.889
  71.13  24.897  23.859
  71.63  24.871  23.859
  72.13  24.897  23.859
  72.63  24.923  23.889
  73.13  24.923  23.889
  73.63  24.923  23.859
  74.13  24.923  23.859
  74.63  24.923  23.889
  75.13  24.949  23.828
  75.63  24.975  23.859
  76.13  24.975  23.889
  76.63  24.923  23.859
  77.13  24.949  23.828
  77.63  24.975  23.828
  78.13  25.005  23.889
  78.63  24.975  23.889
  79.13  25.005  23.859
  79.63  25.005  23.920
  80.13  25.114  23.889
  80.63  25.114  23.889
  81.13  25.114  23.889
  81.63  25.005  23.920
  82.13  25.114  23.859
  82.63  25.222  23.889
  83.13  25.005  23.889
  83.63  25.114  23.889
  84.13  25.330  23.859
  84.63  25.222  23.889
  85.13  25.222  23.859
  85.63  25.222  23.859
  86.13  25.222  23.859
  86.63  25.438  23.828
  87.13  25.330  23.889
  87.63  25.438  23.889
  88.13  25.330  23.889
  88.63  25.763  23.859
  89.13  25.222  23.889
  89.63  25.438  23.859
  90.13  25.763  23.889
  90.63  25.547  23.859
  91.13  25.547  23.889
  91.63  25.547  23.889
  92.13  25.655  23.859
  92.63  25.547  23.859
  93.13  25.980  23.859
  93.63  25.655  23.859
  94.13  25.655  23.920
  94.63  25.763  23.889
  95.13  25.655  23.889
  95.63  25.655  23.920
  96.13  25.763  23.889
  96.63  25.655  23.889
  97.13  25.763  23.859
  97.63  25.655  23.889
  98.13  25.547  23.859
  98.63  25.871  23.889
  99.13  25.763  23.859
  99.63  25.980  23.920
 100.13  25.871  23.889
 100.63  25.655  23.889
 101.13  25.871  23.889
 101.63  25.980  23.889
 102.13  25.980  23.920
 102.63  25.980  23.920
 103.13  25.871  23.889
 103.63  25.980  23.889
 104.13  25.980  23.859
 104.63  25.980  23.889
 105.13  25.871  23.859
 105.63  26.088  23.889
 106.13  25.980  23.889
 106.63  25.980  23.859
 107.13  26.088  23.920
 107.63  26.088  23.859
 108.13  26.088  23.859
 108.63  26.088  23.859
 109.13  26.196  23.859
 109.63  26.196  23.951
 110.13  26.196  23.859
 110.63  26.196  23.889
 111.13  26.196  23.920
 111.63  26.304  23.859
 112.13  26.304  23.889
 112.63  26.196  23.889
 113.13  26.196  23.859
 113.63  26.196  23.859
 114.13  26.413  23.889
 114.63  26.304  23.889
 115.13  26.413  23.920
 115.63  26.413  23.889
 116.13  26.304  23.859
 116.63  26.737  23.889
 117.13  26.521  23.889
 117.63  26.413  23.920
 118.13  26.413  23.889
 118.63  26.521  23.889
 119.13  26.521  23.889
 119.63  26.413  23.889
 120.13  26.521  23.766
 120.63  26.737  23.889
 121.13  26.629  23.889
 121.63  26.521  23.889
 122.13  26.629  23.889
 122.63  26.521  23.920
 123.13  26.629  23.920
 123.63  26.954  23.889
 124.13  26.629  23.859
 124.63  26.629  23.889
 125.13  26.846  23.889
 125.63  26.521  23.889
 126.13  26.629  23.889
 126.63  26.629  23.859
 127.13  26.629  23.889
 127.63  26.629  23.859
 128.13  26.737  23.889
 128.63  26.737  23.859
 129.13  26.846  23.889
 129.63  26.954  23.889
 130.13  26.737  23.889
 130.63  26.846  23.889
 131.13  26.846  23.889
 131.63  26.846  23.859
 132.13  26.846  23.889
 132.63  26.954  23.889
 133.13  26.846  23.920
 133.63  26.846  23.951
 134.13  26.846  23.920
 134.63  26.954  23.889
 135.13  26.954  23.920
 135.63  26.954  23.889
 136.13  26.954  23.889
 136.63  26.846  23.889
 137.13  27.170  23.889
 137.63  26.954  23.920
 138.13  26.954  23.951
 138.63  26.954  23.859
 139.13  27.170  23.920
 139.63  26.954  23.889
 140.13  27.062  23.889
 140.63  27.062  23.889
 141.13  26.954  23.889
 141.63  27.170  23.889
 142.13  27.062  23.828
 142.63  27.170  23.859
 143.13  27.170  23.920
 143.63  27.170  23.859
 144.13  27.170  23.889
 144.63  27.170  23.951
 145.13  27.279  23.889
 145.63  27.170  23.920
 146.13  27.279  23.889
 146.63  27.170  23.889
 147.13  27.279  23.889
 147.63  27.170  23.859
 148.13  27.279  23.920
 148.63  27.170  23.889
 149.13  27.279  23.889
 149.63  27.279  23.920
 150.13  27.387  23.889
 150.63  27.279  23.920
 151.13  27.387  23.889
 151.63  27.495  23.889
 152.13  27.495  23.889
 152.63  27.495  23.859
 153.13  27.495  23.920
 153.63  27.603  23.920
 154.13  27.387  23.859
 154.63  27.279  23.889
 155.13  27.495  23.889
 155.63  27.387  23.889
 156.13  27.495  23.889
 156.63  27.495  23.889
 157.13  27.603  23.889
 157.63  27.603  23.859
 158.13  27.603  23.889
 158.63  27.712  23.920
 159.13  27.603  23.859
 159.63  27.603  23.889
 160.13  27.603  23.920
 160.63  27.603  23.889
 161.13  27.712  23.889
 161.63  27.712  23.889
 162.13  27.712  23.889
 162.63  27.928  23.920
 163.13  27.603  23.889
 163.64  27.712  23.920
 164.14  27.712  23.889
 164.64  27.712  23.889
 165.14  27.820  23.920
 165.64  27.820  23.920
 166.14  27.712  23.859
 166.64  27.712  23.889
 167.14  27.928  23.889
 167.64  27.820  23.859
 168.14  27.928  23.920
 168.64  27.928  23.920
 169.14  27.712  23.889
 169.64  27.820  23.920
 170.14  27.820  23.889
 170.64  27.712  23.889
 171.14  27.928  23.889
 171.64  27.820  23.859
 172.14  27.820  23.889
 172.64  28.036  23.889
 173.14  27.928  23.889
 173.64  27.820  23.889
 174.14  27.820  23.889
 174.64  27.928  23.797
 175.14  27.820  23.859
 175.64  27.928  23.859
 176.14  27.928  23.859
 176.64  28.036  23.859
 177.14  28.036  23.889
 177.64  27.928  23.859
 178.14  27.928  23.859
 178.64  28.036  23.889
 179.14  28.036  23.951
 179.64  28.036  23.889
 180.14  27.928  23.889
 180.64  28.036  23.889
 181.14  28.036  23.889
 181.64  28.145  23.859
 182.14  28.145  23.859
 182.64  28.036  23.889
 183.14  28.145  23.920
 183.64  28.145  23.889
 184.14  28.253  23.889
 184.64  28.253  23.889
 185.14  28.036  23.889
 185.64  28.145  23.889
 186.14  28.253  23.951
 186.64  28.145  23.920
 187.14  28.145  23.889
 187.64  28.469  23.859
 188.14  28.253  23.889
 188.64  28.253  23.889
 189.14  28.145  23.889
 189.64  28.361  23.920
 190.14  28.253  23.859
 190.64  28.253  23.889
 191.14  28.361  23.889
 191.64  28.361  23.859
 192.14  28.036  23.951
 192.64  28.469  23.859
 193.14  28.253  23.889
 193.64  28.361  23.889
 194.14  28.578  23.889
 194.64  28.361  23.889
 195.14  28.361  23.889
 195.64  28.361  23.889
 196.14  28.469  23.889
 196.64  28.469  23.859
 197.14  28.361  23.859
 197.64  28.469  23.889
 198.14  28.361  23.828
 198.64  28.578  23.859
 199.14  28.361  23.828
 199.64  28.469  23.889
 200.14  28.361  23.920
 200.64  28.361  23.889
 201.14  28.469  23.859
 201.64  28.469  23.859
 202.14  28.578  23.889
 202.64  28.578  23.859
 203.14  28.578  23.828
 203.64  28.469  23.859
 204.14  28.361  23.859
 204.64  28.578  23.889
 205.14  28.469  23.889
 205.64  28.578  23.889
 206.14  28.578  23.859
 206.64  28.578  23.859
 207.14  28.469  23.859
 207.64  28.578  23.889
 208.14  28.794  23.889
 208.64  28.686  23.859
 209.14  28.578  23.889
 209.64  28.686  23.889
 210.14  28.794  23.920
 210.64  28.578  23.889
 211.14  28.686  23.889
 211.64  28.686  23.889
 212.14  28.469  23.859
 212.64  28.794  23.859
 213.14  28.794  23.859
 213.64  28.794  23.889
 214.14  28.686  23.889
 214.64  28.902  23.859
 215.14  28.794  23.889
 215.64  29.119  23.920
 216.14  28.902  23.889
 216.64  28.902  23.889
 217.14  28.902  23.889
 217.64  28.902  23.920
 218.14  28.902  23.828
 218.64  29.011  23.920
 219.14  28.794  23.889
 219.64  28.794  23.889
 220.14  28.686  23.889
 220.64  28.902  23.889
 221.14  28.902  23.920
 221.64  29.011  23.889
 222.14  29.119  23.920
 222.64  28.794  23.920
 223.14  29.011  23.889
 223.64  29.119  23.920
 224.14  28.902  23.889
 224.64  29.119  23.889
 225.14  29.011  23.889
 225.64  29.119  23.920
 226.14  29.119  23.889
 226.64  29.011  23.920
 227.14  29.119  23.889
 227.64  29.011  23.889
 228.14  29.011  23.889
 228.64  29.119  23.920
 229.14  29.119  23.920
 229.64  29.011  23.889
 230.14  29.119  23.859
 230.64  29.119  23.889
 231.14  29.227  23.920
 231.64  29.119  23.889
 232.14  29.011  23.889
 232.64  29.335  23.889
 233.14  29.119  23.951
 233.64  29.011  23.889
 234.14  29.335  23.828
 234.64  29.335  23.889
 235.14  29.119  23.889
 235.64  29.335  23.889
 236.14  29.119  23.889
 236.64  29.227  23.920
 237.14  29.335  23.920
 237.64  29.227  23.859
 238.14  29.227  23.920
 238.64  29.335  23.859
 239.14  29.335  23.889
 239.64  29.227  23.951
 240.14  29.335  23.889
 240.64  29.335  23.951
 241.14  29.335  23.859
 241.64  29.335  23.889
 242.14  29.335  23.889
 242.64  29.119  23.889
 243.14  29.335  23.889
 243.64  29.335  23.674
 244.14  29.335  23.889
 244.64  29.335  23.920
 245.14  29.335  23.889
 245.64  29.444  23.889
 246.14  29.335  23.889
 246.64  29.444  23.920
 247.14  29.335  23.859
 247.64  29.444  23.889
 248.14  29.444  23.889
 248.64  29.444  23.920
 249.14  29.444  23.889
 249.64  29.660  23.889
 250.14  29.444  23.859
 250.64  29.552  23.889
 251.14  29.444  23.859
 251.64  29.552  23.859
 252.14  29.444  23.889
 252.64  29.552  23.920
 253.14  29.552  23.889
 253.64  29.552  23.889
 254.14  29.552  23.889
 254.64  29.552  23.920
 255.14  29.768  23.889
 255.64  29.552  23.889
 256.14  29.552  23.920
 256.64  29.768  23.889
 257.14  29.444  23.889
 257.64  29.552  23.951
 258.14  29.552  23.920
 258.64  29.552  23.920
 259.14  29.660  23.889
 259.64  29.660  23.920
 260.14  29.660  23.889
 260.64  29.227  23.920
 261.14  29.660  23.889
 261.64  29.768  23.889
 262.14  29.877  23.889
 262.64  29.660  23.889
 263.14  29.660  23.889
 263.64  29.552  23.889
 264.14  29.660  23.889
 264.64  29.660  23.889
 265.14  29.768  23.889
 265.64  29.768  23.920
 266.14  29.660  23.920
 266.64  29.660  23.920
 267.14  29.768  23.889
 267.64  29.444  23.889
 268.14  29.768  23.859
 268.64  29.768  23.889
 269.14  29.985  23.889
 269.64  29.877  23.889
 270.14  29.877  23.889
 270.64  29.877  23.920
 271.14  29.768  23.889
 271.64  29.768  23.889
 272.14  29.768  23.889
 272.64  29.768  23.889
 273.14  29.877  23.889
 273.64  29.768  23.889
 274.14  29.768  23.859
 274.64  29.877  23.920
 275.14  29.877  23.920
 275.64  30.101  23.889
 276.14  29.877  23.889
 276.65  29.877  23.920
 277.15  29.985  23.889
 277.65  29.768  23.889
 278.15  29.985  23.859
 278.65  29.877  23.889
 279.15  29.985  23.889
 279.65  29.877  23.889
 280.15  29.985  23.859
 280.65  29.985  23.889
 281.15  30.101  23.889
 281.65  29.877  23.889
 282.15  29.985  23.889
 282.65  29.985  23.889
 283.15  29.985  23.859
 283.65  30.101  23.859
 284.15  29.985  23.828
 284.65  30.101  23.889
 285.15  30.101  23.920
 285.65  30.101  23.889
 286.15  29.985  23.920
 286.65  29.985  23.889
 287.15  29.985  23.920
 287.65  30.101  23.859
 288.15  30.451  23.889
 288.65  30.101  23.859
 289.15  30.101  23.951
 289.65  30.101  23.889
 290.15  30.217  23.920
 290.65  30.217  23.920
 291.15  30.101  23.889
 291.65  29.985  23.889
 292.15  30.101  23.889
 292.65  30.101  23.889
 293.15  30.217  23.889
 293.65  30.217  23.920
 294.15  30.217  23.920
 294.65  30.217  23.889
 295.15  30.217  23.920
 295.65  30.217  23.889
 296.15  30.217  23.889
 296.65  30.217  23.889
 297.15  30.101  23.859
 297.65  30.451  23.859
 298.15  30.217  23.889
 298.65  30.334  23.859
 299.15  30.217  23.889
 299.65  30.217  23.920
 300.15  30.334  23.889
 300.65  30.334  23.920
 301.15  30.568  23.920
 301.65  30.451  23.889
 302.15  30.451  23.889
 302.65  30.217  23.889
 303.15  30.334  23.889
 303.65  30.451  23.920
 304.15  30.334  23.889
 304.65  30.334  23.889
 305.15  30.451  23.859
 305.65  30.451  23.920
 306.15  30.451  23.920
 306.65  30.451  23.859
 307.15  30.451  23.889
 307.65  30.334  23.920
 308.15  30.334  23.859
 308.65  30.451  23.889
 309.15  30.451  23.889
 309.65  30.568  23.920
 310.15  30.568  23.982
 310.65  30.451  23.889
 311.15  30.451  23.920
 311.65  30.451  23.889
 312.15  30.568  23.889
 312.65  30.451  23.889
 313.15  30.685  23.920
 313.65  30.451  23.889
 314.15  30.568  23.920
 314.65  30.568  23.920
 315.15  30.568  23.920
 315.65  30.568  23.859
 316.15  30.451  23.889
 316.65  30.451  23.920
 317.15  30.685  23.920
 317.65  30.685  23.920
 318.15  30.685  23.920
 318.65  30.685  23.859
 319.15  30.568  23.920
 319.65  30.568  23.920
 320.15  30.685  23.889
 320.65  30.568  23.889
 321.15  30.685  23.951
 321.65  30.685  23.920
 322.15  30.685  23.889
 322.65  30.685  23.920
 323.15  30.685  23.920
 323.65  30.685  23.889
 324.15  30.685  23.889
 324.65  30.919  23.920
 325.15  30.685  23.889
 325.65  30.802  23.920
 326.15  30.802  23.889
 326.65  30.802  23.920
 327.15  30.685  23.889
 327.65  30.802  23.889
 328.15  31.036  23.951
 328.65  30.802  23.920
 329.15  30.919  23.889
 329.65  30.802  23.859
 330.15  30.802  23.920
 330.65  30.802  23.920
 331.15  30.802  23.889
 331.65  30.685  23.889
 332.15  30.685  23.920
 332.65  30.685  23.828
 333.15  31.036  23.889
 333.65  30.919  23.920
 334.15  30.919  23.889
 334.65  30.919  23.920
 335.15  30.919  23.920
 335.65  30.802  23.889
 336.15  30.919  23.889
 336.65  30.919  23.889
 337.15  30.802  23.920
 337.65  30.802  23.889
 338.15  30.919  23.920
 338.65  30.919  23.920
 339.15  31.152  23.889
 339.65  30.802  23.859
 340.15  30.919  23.920
 340.65  30.919  23.951
 341.15  31.386  23.920
 341.65  30.919  23.920
 342.15  30.919  23.951
 342.65  30.919  23.920
 343.15  31.036  23.920
 343.65  31.036  23.920
 344.15  31.036  23.889
 344.65  31.036  23.951
 345.15  31.036  23.920
 345.65  30.919  23.889
 346.15  31.036  23.920
 346.65  31.152  23.859
 347.15  31.152  23.889
 347.65  31.036  23.920
 348.15  30.919  23.889
 348.65  31.036  23.889
 349.15  31.269  23.920
 349.65  31.036  23.920
 350.15  31.269  23.889
 350.65  30.919  23.889
 351.15  31.269  23.889
 351.65  31.269  23.889
 352.15  31.036  23.920
 352.65  30.919  23.920
 353.15  31.152  23.920
 353.65  31.152  23.920
 354.15  31.152  23.920
 354.65  31.152  23.889
 355.15  31.152  23.889
 355.65  31.036  23.920
 356.15  31.152  23.889
 356.65  31.152  23.889
 357.15  31.386  23.828
 357.65  31.152  23.920
 358.15  31.152  23.889
 358.65  31.152  23.889
 359.15  31.269  23.920
 359.65  31.152  23.889
 360.15  31.269  23.889
 360.65  31.269  23.920
 361.15  31.152  23.920
 361.65  31.269  23.920
 362.15  31.269  23.920
 362.65  31.269  23.889
 363.15  31.269  23.889
 363.65  31.269  23.889
 364.15  31.386  23.920
 364.65  31.269  23.920
 365.15  31.152  23.920
 365.65  31.269  23.889
 366.15  31.269  23.920
 366.65  31.269  23.889
 367.15  31.386  23.920
 367.65  31.269  23.889
 368.15  31.269  23.889
 368.65  31.386  23.920
 369.15  31.269  23.920
 369.65  31.503  23.920
 370.15  31.386  23.920
 370.65  31.386  23.889
 371.15  31.386  23.889
 371.65  31.386  23.889
 372.15  31.386  23.920
 372.65  31.386  23.889
 373.15  31.386  23.920
 373.65  31.386  23.920
 374.15  31.386  23.889
 374.65  31.503  23.889
 375.15  31.503  23.859
 375.65  31.503  23.920
 376.15  31.503  23.889
 376.65  31.503  23.889
 377.15  31.503  23.951
 377.65  31.737  23.920
 378.15  31.503  23.920
 378.65  31.386  23.889
 379.15  31.503  23.889
 379.65  31.620  23.920
 380.15  31.503  23.889
 380.65  31.386  23.889
 381.15  31.503  23.889
 381.65  31.386  23.920
 382.15  31.386  23.920
 382.65  31.503  23.889
 383.15  31.503  23.951
 383.65  31.620  23.889
 384.15  31.971  23.889
 384.65  31.737  23.889
 385.15  31.737  23.920
 385.65  31.620  23.920
 386.15  31.620  23.889
 386.65  31.503  23.920
 387.15  31.620  23.889
 387.65  31.620  23.920
 388.15  31.503  23.889
 388.65  31.503  23.920
 389.15  31.503  23.889
 389.66  31.737  23.920
 390.16  31.620  23.920
 390.66  31.620  23.889
 391.16  31.620  23.889
 391.66  31.737  23.920
 392.16  31.737  23.889
 392.66  31.854  23.920
 393.16  31.620  23.920
 393.66  31.620  23.920
 394.16  32.087  23.859
 394.66  31.620  23.859
 395.16  31.737  23.920
 395.66  31.971  23.889
 396.16  31.737  23.951
 396.66  31.737  23.889
 397.16  31.854  23.920
 397.66  32.087  23.889
 398.16  31.737  23.889
 398.66  31.737  23.920
 399.16  31.737  23.920
 399.66  31.971  23.920
 400.16  31.737  23.920
 400.66  31.737  23.889
 401.16  31.854  23.951
 401.66  31.737  23.920
 402.16  31.854  23.920
 402.66  31.737  23.920
 403.16  32.087  23.920
 403.66  31.971  23.859
 404.16  31.854  23.859
 404.66  31.854  23.951
 405.16  31.854  23.920
 405.66  31.854  23.920
 406.16  31.854  23.920
 406.66  31.854  23.920
 407.16  31.854  23.920
 407.66  31.854  23.920
 408.16  31.971  23.920
 408.66  31.737  23.920
 409.16  31.971  23.920
 409.66  31.971  23.951
 410.16  32.087  23.920
 410.66  31.971  23.859
 411.16  31.737  23.889
 411.66  31.971  23.889
 412.16  31.971  23.920
 412.66  32.087  23.889
 413.16  31.971  23.859
 413.66  31.971  23.889
 414.16  31.971  23.920
 414.66  32.087  23.920
 415.16  32.087  23.920
 415.66  31.971  23.889
 416.16  31.971  23.889
 416.66  31.971  23.889
 417.16  31.971  23.889
 417.66  31.971  23.920
 418.16  32.087  23.889
 418.66  31.971  23.889
 419.16  31.971  23.889
 419.66  31.971  23.951
 420.16  31.971  23.889
 420.66  32.087  23.859
 421.16  31.971  23.797
 421.66  32.087  23.920
 422.16  31.854  23.889
 422.66  31.971  23.920
 423.16  31.971  23.889
 423.66  32.087  23.920
 424.16  32.204  23.889
 424.66  31.971  23.951
 425.16  32.087  23.920
 425.66  31.971  23.828
 426.16  31.971  23.889
 426.66  31.971  23.889
 427.16  32.087  23.920
 427.66  32.087  23.920
 428.16  31.971  23.920
 428.66  32.204  23.920
 429.16  32.204  23.920
 429.66  32.204  23.889
 430.16  32.087  23.889
 430.66  32.204  23.951
 431.16  32.087  23.920
 431.66  32.321  23.920
 432.16  32.204  23.951
 432.66  32.204  23.951
 433.16  32.204  23.889
 433.66  32.087  23.920
 434.16  32.321  23.982
 434.66  32.204  23.859
 435.16  32.204  23.859
 435.66  32.204  23.920
 436.16  32.204  23.920
 436.66  32.204  23.920
 437.16  32.204  23.920
 437.66  32.087  23.920
 438.16  32.087  23.889
 438.66  32.321  23.920
 439.16  32.321  23.920
 439.66  32.204  23.889
 440.16  32.204  23.951
 440.66  32.321  23.920
 441.16  32.204  23.889
 441.66  32.321  23.951
 442.16  32.204  23.889
 442.66  32.672  23.889
 443.16  32.087  23.920
 443.66  32.321  23.920
 444.16  32.321  23.920
 444.66  32.204  23.920
 445.16  32.204  23.889
 445.66  32.321  23.920
 446.16  32.438  23.889
 446.66  32.438  23.920
 447.16  32.321  23.920
 447.66  32.204  23.920
 448.16  32.321  23.889
 448.66  32.438  23.920
 449.16  32.438  23.920
 449.66  32.438  23.859
 450.16  32.555  23.920
 450.66  32.438  23.889
 451.16  32.438  23.951
 451.66  32.321  23.920
 452.16  32.438  23.920
 452.66  32.321  23.889
 453.16  32.438  23.889
 453.66  32.438  23.951
 454.16  32.438  23.951
 454.66  32.555  23.889
 455.16  32.438  23.920
 455.66  32.555  23.889
 456.16  32.555  23.889
 456.66  32.555  23.920
 457.16  32.555  23.920
 457.66  32.555  23.951
 458.16  32.438  23.920
 458.66  32.555  23.920
 459.16  32.672  23.920
 459.66  32.438  23.920
 460.16  32.438  23.920
 460.66  32.438  23.982
 461.16  32.555  23.920
 461.66  32.555  23.920
 462.16  32.555  23.889
 462.66  32.555  23.889
 463.16  32.555  23.920
 463.66  32.672  23.920
 464.16  32.555  23.889
 464.66  32.555  23.982
 465.16  32.438  23.920
 465.66  32.555  23.951
 466.16  32.672  23.920
 466.66  32.555  23.889
 467.16  32.555  23.889
 467.66  32.438  23.920
 468.16  32.555  23.920
 468.66  32.555  23.951
 469.16  32.789  23.889
 469.66  32.672  23.889
 470.16  32.672  23.920
 470.66  32.672  23.889
 471.16  32.555  23.920
 471.66  32.672  23.920
 472.16  32.672  23.920
 472.66  32.672  23.889
 473.16  32.672  23.889
 473.66  32.672  23.920
 474.16  32.438  23.920
 474.66  32.789  23.920
 475.16  32.555  23.889
 475.66  32.555  23.920
 476.16  32.906  23.920
 476.66  32.789  23.951
 477.16  32.672  23.920
 477.66  32.672  23.920
 478.16  32.789  23.920
 478.66  32.672  23.920
 479.16  32.789  23.920
 479.66  32.672  23.889
 480.16  32.672  23.889
 480.66  32.789  23.951
 481.16  32.789  23.920
 481.66  32.672  23.920
 482.16  32.672  23.920
 482.66  32.789  23.951
 483.16  32.789  23.920
 483.66  32.789  23.951
 484.16  32.672  23.920
 484.66  32.789  23.920
 485.16  32.906  23.920
 485.66  32.789  23.920
 486.16  32.789  23.920
 486.66  32.789  23.889
 487.16  32.789  23.920
 487.66  32.789  23.920
 488.16  32.672  23.889
 488.66  32.672  23.889
 489.16  32.789  23.859
 489.66  33.022  23.920
 490.16  32.906  23.920
 490.66  33.022  23.920
 491.16  32.789  23.951
 491.66  32.906  23.859
 492.17  32.906  23.920
 492.67  33.022  23.889
 493.17  32.789  23.920
 493.67  32.789  23.920
 494.17  32.789  23.920
 494.67  32.906  23.889
 495.17  33.022  23.920
 495.67  32.906  23.920
 496.17  32.906  23.920
 496.67  32.906  23.920
 497.17  32.906  23.920
 497.67  32.906  23.920
 498.17  32.906  23.920
 498.67  32.906  23.889
 499.17  32.906  23.920
 499.67  32.906  23.889
 500.17  32.906  23.920
 500.67  32.906  23.920
 501.17  32.906  23.920
 501.67  33.022  23.920
 502.17  33.022  23.920
 502.67  33.139  23.920
 503.17  32.789  23.920
 503.67  33.139  23.951
 504.17  33.022  23.889
 504.67  33.139  23.920
 505.17  33.022  23.920
 505.67  32.906  23.889
 506.17  33.022  23.889
 506.67  33.022  23.889
 507.17  32.906  23.920
 507.67  32.906  23.920
 508.17  32.906  23.920
 508.67  33.022  23.920
 509.17  33.139  23.951
 509.67  33.022  23.920
 510.17  33.256  23.920
 510.67  33.022  23.920
 511.17  33.022  23.951
 511.67  33.022  23.920
 512.17  33.022  23.920
 512.67  32.906  23.951
 513.17  33.139  23.920
 513.67  33.022  23.920
 514.17  33.139  23.920
 514.67  33.139  23.920
 515.17  33.256  23.889
 515.67  33.139  23.920
 516.17  33.139  23.920
 516.67  33.022  23.920
 517.17  33.139  23.920
 517.67  33.256  23.920
 518.17  33.022  23.889
 518.67  33.139  23.920
 519.17  33.022  23.889
 519.67  33.139  23.951
 520.17  33.139  23.951
 520.67  33.139  23.920
 521.17  33.139  23.920
 521.67  33.139  23.920
 522.17  33.139  23.920
 522.67  33.139  23.951
 523.17  33.256  23.920
 523.67  33.256  23.889
 524.17  33.139  23.920
 524.67  33.139  23.920
 525.17  33.022  23.920
 525.67  33.490  23.889
 526.17  33.256  23.920
 526.67  33.373  23.920
 527.17  33.139  23.889
 527.67  33.139  23.920
 528.17  32.906  23.920
 528.67  33.373  23.920
 529.17  33.256  23.920
 529.67  33.256  23.920
 530.17  33.256  24.043
 530.67  33.139  23.920
 531.17  33.373  23.920
 531.67  33.139  23.951
 532.17  33.139  23.920
 532.67  33.139  23.920
 533.17  33.256  23.920
 533.67  33.256  23.982
 534.17  33.256  23.859
 534.67  33.256  23.920
 535.17  33.256  23.920
 535.67  33.373  23.951
 536.17  33.139  23.920
 536.67  33.256  23.920
 537.17  33.373  23.920
 537.67  33.256  23.920
 538.17  33.139  23.920
 538.67  33.139  23.920
 539.17  33.373  23.920
 539.67  33.373  23.889
 540.17  33.256  23.920
 540.67  33.256  23.920
 541.17  33.373  23.920
 541.67  33.373  23.920
 542.17  33.490  23.920
 542.67  33.139  23.951
 543.17  33.139  23.920
 543.67  33.490  23.889
 544.17  33.373  23.920
 544.67  33.256  23.920
 545.17  33.490  23.920
 545.67  33.490  23.920
 546.17  33.373  23.951
 546.67  33.256  23.951
 547.17  33.256  23.920
 547.67  33.490  23.889
 548.17  33.256  23.920
 548.67  33.490  23.920
 549.17  33.373  23.920
 549.67  33.373  23.920
 550.17  33.373  23.889
 550.67  33.373  23.920
 551.17  33.373  23.920
 551.67  33.490  23.920
 552.17  33.607  23.920
 552.67  33.490  24.013
 553.17  33.724  23.920
 553.67  33.490  23.889
 554.17  33.490  23.920
 554.67  33.490  23.951
 555.17  33.607  23.889
 555.67  33.607  23.920
 556.17  33.607  23.951
 556.67  33.724  23.920
 557.17  33.490  23.889
 557.67  33.373  23.951
 558.17  33.490  23.920
 558.67  33.490  23.920
 559.17  33.490  23.982
 559.67  33.607  23.920
 560.17  33.373  23.889
 560.67  33.607  23.951
 561.17  33.373  23.920
 561.67  33.490  23.951
 562.17  33.724  23.920
 562.67  33.490  23.951
 563.17  33.490  23.920
 563.67  33.724  23.920
 564.17  33.607  23.951
 564.67  33.607  23.951
 565.17  33.724  23.920
 565.67  33.607  23.951
 566.17  33.490  23.920
 566.67  33.490  23.982
 567.17  33.607  23.920
 567.67  33.607  23.951
 568.17  33.607  23.951
 568.67  33.607  23.951
 569.17  33.607  23.951
 569.67  33.607  23.951
 570.17  33.607  23.920
 570.67  33.607  23.951
 571.17  33.841  23.951
 571.67  33.490  23.920
 572.17  33.607  23.920
 572.67  33.490  23.859
 573.17  33.607  23.920
 573.67  33.841  23.920
 574.17  33.607  23.889
 574.67  33.607  23.920
 575.17  33.607  23.920
 575.67  33.724  23.889
 576.17  33.724  23.920
 576.67  33.724  23.920
 577.17  33.841  23.889
 577.67  33.607  23.920
 578.17  33.607  23.920
 578.67  33.490  23.920
 579.17  33.724  23.920
 579.67  33.724  23.951
 580.17  33.724  23.951
 580.67  33.724  23.920
 581.17  33.724  23.920
 581.67  33.957  24.013
 582.17  33.607  23.982
 582.67  33.841  23.951
 583.17  33.724  23.920
 583.67  33.724  23.920
 584.17  33.841  23.920
 584.67  33.724  23.920
 585.17  33.724  23.920
 585.67  33.607  23.920
 586.17  33.607  23.889
 586.67  33.607  23.920
 587.17  33.724  23.920
 587.67  33.607  23.920
 588.17  33.724  23.920
 588.67  33.724  23.920
 589.17  33.841  23.889
 589.67  33.841  23.951
 590.17  33.607  23.920
 590.67  33.841  23.920
 591.17  33.841  23.920
 591.67  33.841  23.920
 592.17  33.841  23.951
 592.67  33.957  23.920
 593.17  33.841  23.951
 593.67  33.724  23.951
 594.17  33.841  23.920
 594.67  33.724  23.920
 595.17  33.841  23.920
 595.67  33.957  23.951
 596.17  33.957  23.920
 596.67  33.957  23.982
 597.17  33.957  23.951
 597.67  33.957  23.920
 598.17  33.957  23.951
 598.67  33.841  23.951
 599.17  33.841  23.920
 599.67  33.841  23.920
 600.17  33.957  23.951
 600.67  34.074  23.920
 601.17  33.724  23.982
 601.67  33.957  23.951
 602.17  33.841  23.951
 602.67  33.957  23.889
 603.17  33.957  23.920
 603.67  33.957  23.951
 604.17  33.957  23.951
 604.67  34.308  23.982
 605.17  34.074  23.982
 605.67  33.957  23.920
 606.17  33.841  23.920
 606.67  33.957  23.920
 607.17  33.957  23.920
 607.67  33.841  23.982
 608.17  33.957  23.920
 608.67  33.957  23.920
 609.17  33.957  23.982
 609.67  33.957  23.951
 610.17  33.957  23.889
 610.67  33.957  23.951
 611.17  33.957  23.889
 611.67  33.957  23.920
 612.17  33.957  23.920
 612.67  33.957  23.920
 613.17  33.841  23.951
 613.67  34.074  23.920
 614.17  33.957  23.951
 614.67  34.074  23.982
 615.17  33.957  23.920
 615.67  33.957  23.951
 616.18  33.957  23.920
 616.68  34.191  23.920
 617.18  34.074  23.951
 617.68  33.957  23.920
 618.18  34.074  23.951
 618.68  33.957  23.920
 619.18  34.191  23.920
 619.68  34.074  23.889
 620.18  33.841  23.889
 620.68  34.191  23.920
 621.18  33.957  23.920
 621.68  34.074  23.920
 622.18  34.074  23.951
 622.68  33.957  23.951
 623.18  34.074  23.889
 623.68  34.074  23.920
 624.18  34.074  23.920
 624.68  34.074  23.951
 625.18  34.074  23.951
 625.68  34.191  23.920
 626.18  33.957  23.951
 626.68  34.074  23.920
 627.18  34.074  23.920
 627.68  34.191  23.951
 628.18  34.191  23.920
 628.68  34.425  23.920
 629.18  34.074  23.889
 629.68  34.191  24.013
 630.18  34.191  23.920
 630.68  34.191  23.951
 631.18  34.074  23.920
 631.68  34.074  23.982
 632.18  34.191  23.951
 632.68  34.191  23.889
 633.18  34.425  23.951
 633.68  34.191  23.951
 634.18  34.191  23.920
 634.68  34.191  23.951
 635.18  34.191  23.920
 635.68  34.191  23.982
 636.18  34.191  23.951
 636.68  34.308  23.920
 637.18  34.191  23.920
 637.68  34.308  23.951
 638.18  34.308  23.951
 638.68  34.659  23.920
 639.18  34.191  23.920
 639.68  34.074  23.889
 640.18  34.308  23.951
 640.68  34.308  23.951
 641.18  34.191  23.951
 641.68  34.191  23.951
 642.18  34.191  23.982
 642.68  34.308  23.920
 643.18  34.425  23.951
 643.68  34.425  23.951
 644.18  34.308  23.920
 644.68  34.425  23.889
 645.18  34.308  23.920
 645.68  34.191  23.951
 646.18  34.308  23.982
 646.68  34.308  23.951
 647.18  34.191  23.920
 647.68  34.308  23.920
 648.18  34.191  23.982
 648.68  34.191  23.920
 649.18  34.308  23.920
 649.68  34.308  23.951
 650.18  34.191  23.920
 650.68  34.425  23.982
 651.18  34.308  23.920
 651.68  34.308  23.920
 652.18  34.308  23.951
 652.68  34.308  23.920
 653.18  34.308  23.920
 653.68  34.308  23.920
 654.18  34.308  23.951
 654.68  34.308  23.920
 655.18  34.308  23.920
 655.68  34.308  23.951
 656.18  34.308  23.951
 656.68  34.308  23.920
 657.18  34.308  23.920
 657.68  34.308  23.951
 658.18  34.425  23.982
 658.68  34.191  23.951
 659.18  34.425  23.920
 659.68  34.425  23.982
 660.18  34.191  23.951
 660.68  34.308  23.951
 661.18  34.425  23.951
 661.68  34.308  23.920
 662.18  34.191  23.951
 662.68  34.425  23.920
 663.18  34.425  23.951
 663.68  34.425  23.920
 664.18  34.308  23.920
 664.68  34.425  23.920
 665.18  34.308  23.951
 665.68  34.425  23.951
 666.18  34.425  23.920
 666.68  34.425  23.951
 667.18  34.776  23.951
 667.68  34.425  23.920
 668.18  34.542  23.920
 668.68  34.425  23.951
 669.18  34.425  23.889
 669.68  34.425  23.982
 670.18  34.308  23.982
 670.68  34.425  23.982
 671.18  34.308  23.920
 671.68  34.425  23.951
 672.18  34.425  23.920
 672.68  34.425  23.920
 673.18  34.425  23.920
 673.68  34.425  23.920
 674.18  34.542  23.951
 674.68  34.425  23.951
 675.18  34.542  23.951
 675.68  34.308  23.889
 676.18  34.425  23.920
 676.68  34.542  23.951
 677.18  34.425  23.920
 677.68  34.425  23.920
 678.18  34.542  23.951
 678.68  34.308  23.951
 679.18  34.659  23.951
 679.68  34.425  23.951
 680.18  34.425  23.982
 680.68  34.542  23.889
 681.18  34.425  23.951
 681.68  34.542  23.951
 682.18  34.892  23.982
 682.68  34.542  23.951
 683.18  34.425  23.982
 683.68  34.659  23.951
 684.18  34.542  23.951
 684.68  35.005  23.951
 685.18  34.659  23.951
 685.68  34.776  23.920
 686.18  34.542  23.920
 686.68  34.659  23.951
 687.18  34.542  23.951
 687.68  34.542  23.982
 688.18  34.776  23.982
 688.68  34.659  23.920
 689.18  34.425  23.920
 689.68  35.005  23.920
 690.18  34.659  24.013
 690.68  34.659  23.951
 691.18  34.659  23.982
 691.68  34.659  23.920
 692.18  34.542  23.951
 692.68  34.659  23.951
 693.18  34.542  23.920
 693.68  34.659  23.982
 694.18  34.542  23.920
 694.68  34.892  23.951
 695.18  34.659  23.951
 695.68  34.659  23.951
 696.18  34.542  23.920
 696.68  34.659  23.982
 697.18  34.776  23.951
 697.68  34.542  23.951
 698.18  34.776  23.920
 698.68  34.659  23.951
 699.18  34.659  23.982
 699.68  34.542  23.920
 700.18  34.776  24.013
 700.68  34.542  23.920
 701.18  34.659  23.951
 701.68  34.659  23.951
 702.18  34.659  23.951
 702.68  34.776  23.951
 703.18  34.776  23.951
 703.68  34.776  23.951
 704.18  34.659  23.920
 704.68  34.659  23.951
 705.18  34.892  23.951
 705.68  34.659  23.951
 706.18  34.425  23.951
 706.68  34.776  23.920
 707.18  34.776  23.951
 707.68  34.776  23.951
 708.18  34.659  23.951
 708.68  34.776  23.982
 709.18  34.776  23.889
 709.68  34.776  23.951
 710.18  34.776  23.951
 710.68  34.776  23.951
 711.18  34.776  23.982
 711.68  34.776  23.982
 712.18  34.892  23.859
 712.68  34.542  23.951
 713.18  34.776  23.982
 713.68  34.776  23.951
 714.18  34.776  23.951
 714.68  34.776  23.982
 715.18  34.776  23.951
 715.68  34.892  23.951
 716.18  34.776  23.951
 716.68  34.776  23.920
 717.18  34.892  23.951
 717.68  34.659  23.920
 718.18  34.659  23.982
 718.68  34.659  23.920
 719.18  34.776  23.951
 719.68  34.776  23.951
 720.18  34.892  23.982
 720.68  34.892  23.951
 721.18  34.892  23.951
 721.68  34.776  23.920
 722.18  34.892  23.920
 722.68  34.892  23.920
 723.18  34.776  23.920
 723.68  34.776  23.951
 724.18  34.892  23.982
 724.68  34.892  23.951
 725.18  34.776  23.982
 725.68  34.892  23.889
 726.18  34.776  23.951
 726.68  34.892  23.951
 727.18  34.776  23.951
 727.68  34.776  23.951
 728.18  34.776  23.951
 728.68  34.892  23.951
 729.19  34.892  23.951
 729.69  34.892  23.920
 730.19  34.776  23.951
 730.69  34.892  23.951
 731.19  34.892  24.013
 731.69  34.892  24.013
 732.19  34.892  23.920
 732.69  34.892  23.951
 733.19  34.776  23.951
 733.69  34.892  23.951
 734.19  34.892  23.920
 734.69  34.892  23.982
 735.19  34.892  23.982
 735.69  35.005  23.951
 736.19  34.892  23.982
 736.69  35.005  23.951
 737.19  34.892  23.951
 737.69  34.892  23.951
 738.19  34.892  23.920
 738.69  34.892  23.982
 739.19  34.892  23.951
 739.69  34.892  23.920
 740.19  35.005  23.951
 740.69  35.005  23.920
 741.19  34.892  23.982
 741.69  34.892  23.982
 742.19  34.659  23.920
 742.69  35.005  23.920
 743.19  35.005  23.951
 743.69  34.776  23.920
 744.19  35.005  23.920
 744.69  35.005  23.982
 745.19  34.892  23.951
 745.69  35.005  23.951
 746.19  35.005  23.951
 746.69  34.892  23.951
 747.19  35.005  23.951
 747.69  35.005  23.951
 748.19  34.892  23.951
 748.69  35.069  23.951
 749.19  34.892  23.951
 749.69  34.892  23.920
 750.19  35.005  23.951
 750.69  34.892  23.920
 751.19  34.892  23.920
 751.69  34.659  23.951
 752.19  34.892  23.951
 752.69  35.005  23.920
 753.19  35.005  23.951
 753.69  35.005  23.951
 754.19  35.005  23.982
 754.69  35.069  23.920
 755.19  35.005  23.951
 755.69  34.892  23.951
 756.19  35.005  23.951
 756.69  35.069  23.920
 757.19  35.005  23.982
 757.69  35.005  23.951
 758.19  35.069  23.951
 758.69  35.005  23.951
 759.19  35.005  23.951
 759.69  35.069  23.982
 760.19  35.005  23.951
 760.69  35.133  23.951
 761.19  35.069  23.951
 761.69  35.005  23.951
 762.19  35.069  23.951
 762.69  35.069  23.951
 763.19  35.005  23.982
 763.69  35.005  23.951
 764.19  35.005  23.920
 764.69  35.005  23.951
 765.19  35.069  23.920
 765.69  35.197  23.951
 766.19  35.005  23.951
 766.69  35.069  23.951
 767.19  35.005  23.951
 767.69  35.069  23.982
 768.19  35.005  23.951
 768.69  35.069  23.982
 769.19  35.069  23.982
 769.69  35.133  23.920
 770.19  35.133  23.951
 770.69  35.069  23.982
 771.19  35.069  23.951
 771.69  35.133  24.013
 772.19  35.069  23.982
 772.69  35.069  23.951
 773.19  35.069  23.920
 773.69  35.069  23.982
 774.19  35.133  23.951
 774.69  35.133  23.982
 775.19  35.069  23.982
 775.69  35.197  23.951
 776.19  35.133  23.951
 776.69  35.133  23.951
 777.19  35.069  23.951
 777.69  35.133  23.951
 778.19  35.069  23.951
 778.69  35.069  23.982
 779.19  35.069  23.982
 779.69  35.133  23.951
 780.19  35.133  23.982
 780.69  35.133  23.951
 781.19  35.069  24.013
 781.69  35.133  23.951
 782.19  35.133  23.920
 782.69  35.133  23.951
 783.19  35.133  23.982
 783.69  35.133  23.951
 784.19  35.133  23.951
 784.69  35.133  23.920
 785.19  35.069  23.982
 785.69  35.133  23.982
 786.19  35.133  23.951
 786.69  35.133  23.951
 787.19  35.133  23.951
 787.69  35.197  23.951
 788.19  35.197  24.043
 788.69  35.197  23.982
 789.19  35.197  23.982
 789.69  35.133  23.920
 790.19  35.069  23.951
 790.69  35.133  23.951
 791.19  35.133  23.982
 791.69  35.133  23.982
 792.19  35.133  23.951
 792.69  35.197  23.982
 793.19  35.133  23.951
 793.69  35.197  23.982
 794.19  35.133  23.951
 794.69  35.197  23.982
 795.19  35.133  23.951
 795.69  35.197  23.951
 796.19  35.069  23.951
 796.69  35.197  23.951
 797.19  35.133  23.982
 797.69  35.133  24.013
 798.19  35.133  23.982
 798.69  35.133  23.982
 799.19  35.133  23.982
 799.69  35.197  23.951
 800.19  35.197  23.889
 800.69  35.069  23.920
 801.19  35.069  23.951
 801.69  35.069  23.951
 802.19  35.197  24.013
 802.69  35.325  23.951
 803.19  35.197  23.951
 803.69  35.133  23.951
 804.19  35.197  23.982
 804.69  35.197  23.951
 805.19  35.197  23.982
 805.69  35.197  23.982
 806.19  35.197  23.982
 806.69  35.197  23.982
 807.19  35.197  23.951
 807.69  35.197  23.982
 808.19  35.133  23.982
 808.69  35.197  24.043
 809.19  35.197  24.013
 809.69  35.197  24.013
 810.19  35.197  23.982
 810.69  35.261  23.982
 811.19  35.261  23.982
 811.69  35.197  23.951
 812.19  35.261  23.951
 812.69  35.197  23.982
 813.19  35.197  23.951
 813.69  35.197  23.982
 814.19  35.197  23.951
 814.69  35.261  23.982
 815.19  35.197  23.982
 815.69  35.325  23.951
 816.19  35.261  23.982
 816.69  35.325  23.982
 817.19  35.197  23.951
 817.69  35.261  23.951
 818.19  35.197  23.982
 818.69  35.261  23.982
 819.19  35.197  24.013
 819.69  35.261  23.951
 820.19  35.261  23.982
 820.69  35.197  23.982
 821.19  35.197  24.013
 821.69  35.261  23.951
 822.19  35.325  23.982
 822.69  35.325  23.951
 823.19  35.197  23.982
 823.69  35.325  23.951
 824.19  35.325  23.951
 824.69  35.325  23.951
 825.19  35.261  23.982
 825.69  35.389  23.982
 826.19  35.325  23.951
 826.69  35.261  23.982
 827.19  35.325  24.013
 827.69  35.261  23.982
 828.19  35.261  23.982
 828.69  35.325  23.951
 829.19  35.261  23.951
 829.69  35.261  23.951
 830.19  35.325  23.982
 830.69  35.261  23.982
 831.19  35.197  23.982
 831.70  35.325  23.982
 832.20  35.325  23.951
 832.70  35.325  23.982
 833.20  35.325  23.982
 833.70  35.261  23.951
 834.20  35.261  23.982
 834.70  35.325  23.982
 835.20  35.261  23.982
 835.70  35.261  23.951
 836.20  35.261  23.982
 836.70  35.261  23.982
 837.20  35.261  23.982
 837.70  35.325  23.982
 838.20  35.453  23.982
 838.70  35.261  23.982
 839.20  35.325  23.982
 839.70  35.261  23.951
 840.20  35.325  23.982
 840.70  35.261  24.013
 841.20  35.325  24.013
 841.70  35.325  23.982
 842.20  35.453  23.982
 842.70  35.325  23.982
 843.20  35.389  24.013
 843.70  35.325  23.982
 844.20  35.325  23.982
 844.70  35.325  23.982
 845.20  35.325  24.013
 845.70  35.325  23.982
 846.20  35.389  23.982
 846.70  35.325  23.982
 847.20  35.325  23.982
 847.70  35.325  24.043
 848.20  35.453  24.013
 848.70  35.325  23.982
 849.20  35.325  23.982
 849.70  35.325  23.982
 850.20  35.389  23.982
 850.70  35.325  24.013
 851.20  35.325  23.982
 851.70  35.389  23.951
 852.20  35.389  23.982
 852.70  35.389  23.982
 853.20  35.453  23.982
 853.70  35.325  23.982
 854.20  35.389  23.951
 854.70  35.645  23.982
 855.20  35.325  23.951
 855.70  35.261  24.013
 856.20  35.325  24.013
 856.70  35.325  23.982
 857.20  35.389  23.982
 857.70  35.389  23.982
 858.20  35.389  23.982
 858.70  35.389  23.951
 859.20  35.517  24.043
 859.70  35.325  23.982
 860.20  35.453  23.982
 860.70  35.389  23.982
 861.20  35.453  24.013
 861.70  35.389  23.982
 862.20  35.389  23.982
 862.70  35.325  24.043
 863.20  35.325  23.951
 863.70  35.581  23.951
 864.20  35.325  23.982
 864.70  35.389  23.982
 865.20  35.325  24.013
 865.70  35.389  23.951
 866.20  35.389  24.013
 866.70  35.325  23.982
 867.20  35.389  23.982
 867.70  35.453  24.043
 868.20  35.389  23.982
 868.70  35.325  23.982
 869.20  35.389  23.982
 869.70  35.389  23.982
 870.20  35.453  24.013
 870.70  35.325  23.982
 871.20  35.325  24.043
 871.70  35.453  23.982
 872.20  35.389  24.043
 872.70  35.453  23.951
 873.20  35.389  24.013
 873.70  35.517  23.982
 874.20  35.389  23.951
 874.70  35.453  23.982
 875.20  35.389  23.982
 875.70  35.389  24.013
 876.20  35.389  24.043
 876.70  35.453  23.982
 877.20  35.389  23.951
 877.70  35.389  23.982
 878.20  35.453  24.013
 878.70  35.517  23.982
 879.20  35.453  24.013
 879.70  35.389  23.982
 880.20  35.325  23.982
 880.70  35.453  23.982
 881.20  35.389  24.013
 881.70  35.389  23.951
 882.20  35.453  24.013
 882.70  35.453  23.982
 883.20  35.453  24.013
 883.70  35.453  23.951
 884.20  35.517  23.951
 884.70  35.453  24.013
 885.20  35.453  23.982
 885.70  35.517  23.982
 886.20  35.453  23.951
 886.70  35.389  23.951
 887.20  35.453  23.951
 887.70  35.517  23.951
 888.20  35.453  23.982
 888.70  35.453  24.013
 889.20  35.453  24.013
 889.70  35.453  23.982
 890.20  35.581  23.982
 890.70  35.453  23.982
 891.20  35.389  23.951
 891.70  35.581  23.920
 892.20  35.453  23.982
 892.70  35.453  24.043
 893.20  35.453  23.951
 893.70  35.709  24.013
 894.20  35.389  24.013
 894.70  35.389  24.043
 895.20  35.517  23.982
 895.70  35.453  24.013
 896.20  35.453  23.982
 896.70  35.517  23.982
 897.20  35.453  23.951
 897.70  35.453  23.982
 898.20  35.453  24.043
 898.70  35.517  23.951
 899.20  35.453  23.951
 899.70  35.581  23.982
 900.20  35.453  23.982
 900.70  35.517  23.951
 901.20  35.517  23.982
 901.70  35.517  24.013
 902.20  35.517  24.013
 902.70  35.581  23.982
 903.20  35.517  24.013
 903.70  35.517  23.982
 904.20  35.453  23.982
 904.70  35.389  23.982
 905.20  35.517  23.982
 905.70  35.517  23.982
 906.20  35.389  23.982
 906.70  35.517  23.951
 907.20  35.453  24.013
 907.70  35.453  23.951
 908.20  35.517  23.982
 908.70  35.517  23.982
 909.20  35.517  23.982
 909.70  35.517  24.013
 910.20  35.517  23.951
 910.70  35.581  24.013
 911.20  35.517  23.982
 911.70  35.453  23.982
 912.20  35.517  23.982
 912.70  35.581  23.951
 913.20  35.581  23.982
 913.70  35.517  23.951
 914.20  35.581  23.982
 914.70  35.453  24.013
 915.20  35.517  23.951
 915.70  35.517  24.043
 916.20  35.517  23.982
 916.70  35.581  23.951
 917.20  35.517  23.982
 917.70  35.581  24.013
 918.20  35.517  23.982
 918.70  35.517  23.982
 919.20  35.581  24.013
 919.70  35.453  24.013
 920.20  35.517  23.982
 920.70  35.581  23.951
 921.20  35.581  23.982
 921.70  35.645  23.951
 922.20  35.581  24.043
 922.70  35.517  23.889
 923.20  35.581  24.013
 923.70  35.517  23.982
 924.20  35.517  24.043
 924.70  35.325  24.013
 925.20  35.645  23.982
 925.70  35.645  23.982
 926.20  35.581  24.013
 926.70  35.517  24.013
 927.20  35.517  23.982
 927.70  35.517  24.013
 928.20  35.517  23.982
 928.70  35.517  23.982
 929.20  35.581  24.013
 929.70  35.581  24.013
 930.20  35.581  24.013
 930.70  35.453  23.982
 931.20  35.517  23.982
 931.70  35.645  23.982
 932.20  35.645  24.013
 932.70  35.581  24.013
 933.20  35.581  24.013
 933.70  35.581  24.043
 934.20  35.581  23.982
 934.70  35.581  23.982
 935.20  35.581  24.013
 935.70  35.581  23.982
 936.20  35.581  24.013
 936.70  35.645  24.013
 937.20  35.517  23.982
 937.70  35.517  23.982
 938.20  35.645  23.982
 938.70  35.581  24.013
 939.20  35.645  23.982
 939.70  35.581  24.013
 940.20  35.645  24.013
 940.70  35.581  24.013
 941.20  35.581  23.982
 941.70  35.581  23.982
 942.20  35.581  23.982
 942.70  35.645  23.982
 943.20  35.517  24.013
 943.70  35.581  23.982
 944.20  35.645  23.982
 944.71  35.645  24.043
 945.21  35.581  23.982
 945.71  35.581  24.043
 946.21  35.709  23.982
 946.71  35.581  23.982
 947.21  35.581  24.013
 947.71  35.645  24.043
 948.21  35.645  24.013
 948.71  35.645  24.013
 949.21  35.645  24.043
 949.71  35.645  23.982
 950.21  35.581  24.013
 950.71  35.581  24.013
 951.21  35.581  24.013
 951.71  35.581  24.043
 952.21  35.645  24.013
 952.71  35.645  23.982
 953.21  35.645  23.951
 953.71  35.581  23.982
 954.21  35.645  23.982
 954.71  35.645  23.982
 955.21  35.645  24.013
 955.71  35.645  24.013
 956.21  35.581  23.951
 956.71  35.581  24.013
 957.21  35.581  24.074
 957.71  35.517  24.013
 958.21  35.645  24.013
 958.71  35.581  24.013
 959.21  35.709  23.982
 959.71  35.709  24.043
 960.21  35.645  24.043
 960.71  35.581  23.982
 961.21  35.581  24.013
 961.71  35.709  24.013
 962.21  35.645  24.013
 962.71  35.709  24.013
 963.21  35.645  24.013
 963.71  35.709  24.013
 964.21  35.645  24.013
 964.71  35.645  24.013
 965.21  35.645  24.013
 965.71  35.645  24.013
 966.21  35.645  23.982
 966.71  35.709  24.013
 967.21  35.709  23.982
 967.71  35.709  24.013
 968.21  35.773  24.013
 968.71  35.709  23.982
 969.21  35.645  23.982
 969.71  35.645  24.043
 970.21  35.709  23.982
 970.71  35.773  24.043
 971.21  35.645  24.013
 971.71  35.709  24.013
 972.21  35.709  24.013
 972.71  35.773  24.013
 973.21  35.581  24.013
 973.71  35.837  24.043
 974.21  35.773  24.013
 974.71  35.709  24.013
 975.21  35.645  23.982
 975.71  35.645  23.982
 976.21  35.645  23.982
 976.71  35.709  24.043
 977.21  35.773  24.013
 977.71  35.645  24.013
 978.21  35.709  24.043
 978.71  35.709  23.982
 979.21  35.773  24.013
 979.71  35.709  24.013
 980.21  35.709  23.982
 980.71  35.709  23.982
 981.21  35.709  23.982
 981.71  35.773  23.982
 982.21  35.773  24.013
 982.71  35.709  23.951
 983.21  35.773  24.013
 983.71  35.581  24.013
 984.21  35.709  23.982
 984.71  35.773  24.013
 985.21  35.773  23.982
 985.71  35.709  24.013
 986.21  35.709  24.013
 986.71  35.773  24.013
 987.21  35.709  23.982
 987.71  35.709  24.043
 988.21  35.709  23.951
 988.71  35.709  23.982
 989.21  35.709  24.013
 989.71  35.709  23.951
 990.21  35.773  23.982
 990.71  35.773  23.982
 991.21  35.645  24.013
 991.71  35.645  24.013
 992.21  35.773  23.982
 992.71  35.709  24.013
 993.21  35.709  23.982
 993.71  35.709  24.043
 994.21  35.645  23.982
 994.71  35.773  23.982
 995.21  35.709  24.013
 995.71  35.709  24.013
 996.21  35.709  24.013
 996.71  35.709  24.013
 997.21  35.773  24.013
 997.71  35.709  23.982
 998.21  35.773  23.982
 998.71  35.773  24.043
 999.21  35.773  24.043
 999.71  35.773  24.013
1000.21  35.773  24.043
1000.71  35.773  24.013
1001.21  35.773  24.013
1001.71  35.837  24.013
1002.21  35.773  24.013
1002.71  35.709  24.013
1003.21  35.773  24.043
1003.71  35.837  24.013
1004.21  35.773  23.982
1004.71  35.901  24.013
1005.21  35.837  24.013
1005.71  35.773  24.013
1006.21  35.709  24.043
1006.71  35.773  24.013
1007.21  35.837  24.013
1007.71  35.837  24.013
1008.21  35.773  23.982
1008.71  35.773  23.982
1009.21  35.773  24.013
1009.71  35.837  23.982
1010.21  35.773  24.013
1010.71  35.773  24.013
1011.21  35.773  24.043
1011.71  35.773  23.982
1012.21  35.773  24.013
1012.71  35.773  24.043
1013.21  35.837  23.982
1013.71  35.901  24.013
1014.21  35.773  24.043
1014.71  35.645  24.013
1015.21  35.901  23.982
1015.71  35.709  24.013
1016.21  35.837  24.013
1016.71  35.837  24.043
1017.21  35.773  24.074
1017.71  35.901  24.043
1018.21  35.837  24.013
1018.71  35.773  24.074
1019.21  35.709  23.982
1019.71  35.837  24.043
1020.21  35.837  24.043
1020.71  35.837  24.013
1021.21  35.837  24.074
1021.71  35.837  24.043
1022.21  35.837  24.013
1022.71  35.901  24.043
1023.21  35.773  24.013
1023.71  35.837  24.013
1024.21  35.837  24.043
1024.71  35.773  24.013
1025.21  35.773  24.043
1025.71  35.773  24.043
1026.21  35.837  24.013
1026.71  35.837  24.013
1027.21  35.901  24.043
1027.71  35.837  24.043
1028.21  35.773  24.013
1028.71  35.837  23.982
1029.21  35.837  24.013
1029.71  35.837  24.013
1030.21  35.837  24.043
1030.71  35.837  24.043
1031.21  35.773  24.043
1031.71  35.901  24.013
1032.21  35.901  24.013
1032.71  35.837  24.043
1033.21  35.837  24.013
1033.71  35.837  24.013
1034.21  35.901  23.982
1034.71  35.901  24.074
1035.21  35.837  24.043
1035.71  36.029  23.982
1036.21  35.837  23.982
1036.71  35.837  24.013
1037.21  35.837  24.074
1037.71  35.901  23.982
1038.21  35.837  24.043
1038.71  35.901  24.013
1039.21  35.901  24.043
1039.71  35.837  23.982
1040.21  35.837  24.043
1040.71  35.837  24.013
1041.21  35.837  24.013
1041.71  35.901  24.043
1042.21  35.773  24.043
1042.71  35.901  24.013
1043.21  35.773  23.982
1043.71  35.901  23.982
1044.21  35.901  24.043
1044.71  35.837  23.982
1045.21  35.773  24.013
1045.71  35.773  24.013
1046.21  35.837  24.013
1046.71  35.837  23.982
1047.21  35.965  24.043
1047.71  35.837  24.013
1048.21  35.965  24.013
1048.71  35.837  24.043
1049.21  35.837  23.982
1049.71  35.837  23.982
1050.21  35.901  24.013
1050.71  35.901  24.013
1051.21  35.837  24.013
1051.71  35.965  24.043
1052.21  35.901  24.013
1052.71  35.837  24.043
1053.21  35.837  24.043
1053.71  35.837  24.013
1054.21  35.901  24.013
1054.71  35.837  24.043
1055.21  35.901  24.013
1055.71  35.837  24.043
1056.21  35.965  24.013
1056.71  35.901  24.043
1057.21  35.901  24.043
1057.71  35.901  24.043
1058.21  35.901  24.013
1058.71  35.901  24.074
1059.21  36.093  24.013
1059.71  35.901  24.013
1060.21  35.901  24.013
1060.71  35.901  24.074
1061.21  35.901  24.013
1061.71  35.901  24.013
1062.21  35.901  24.043
1062.71  35.965  24.043
1063.21  35.965  23.982
1063.71  35.901  24.013
1064.21  35.837  24.013
1064.71  35.901  24.043
1065.21  35.901  24.043
1065.71  35.901  24.043
1066.21  35.901  24.043
1066.71  35.901  24.013
1067.21  35.901  24.013
1067.71  35.837  24.013
1068.21  35.965  24.074
1068.72  35.901  24.013
1069.22  35.901  24.013
1069.72  35.773  24.043
1070.22  35.901  24.105
1070.72  35.837  24.043
1071.22  35.901  24.043
1071.72  36.093  24.074
1072.22  35.901  24.074
1072.72  35.837  24.043
1073.22  35.901  24.043
1073.72  35.837  24.074
1074.22  35.901  24.043
1074.72  35.901  24.043
1075.22  35.965  24.043
1075.72  35.901  24.043
1076.22  35.901  24.013
1076.72  35.901  24.043
1077.22  35.901  24.043
1077.72  35.965  24.043
1078.22  35.837  24.043
1078.72  35.965  24.043
1079.22  35.965  24.074
1079.72  35.901  24.043
1080.22  35.965  24.043
1080.72  35.965  24.013
1081.22  35.965  24.013
1081.72  35.965  24.013
1082.22  36.029  24.043
1082.72  35.965  24.013
1083.22  35.965  24.043
1083.72  35.965  24.043
1084.22  35.965  24.043
1084.72  35.965  24.043
1085.22  35.965  24.043
1085.72  35.901  24.043
1086.22  35.901  24.043
1086.72  35.965  24.043
1087.22  35.901  24.043
1087.72  35.965  24.043
1088.22  36.029  24.043
1088.72  35.965  24.043
1089.22  35.965  24.074
1089.72  35.965  24.043
1090.22  35.965  24.013
1090.72  35.965  24.043
1091.22  35.965  24.043
1091.72  35.965  24.043
1092.22  36.029  24.043
1092.72  36.029  24.013
1093.22  35.965  24.043
1093.72  35.965  24.043
1094.22  36.029  24.013
1094.72  35.965  24.043
1095.22  35.965  24.043
1095.72  35.901  24.043
1096.22  35.965  24.043
1096.72  35.965  24.043
1097.22  36.029  24.074
1097.72  36.285  24.043
1098.22  35.965  24.043
1098.72  35.965  24.013
1099.22  36.093  24.043
1099.72  35.965  24.013
1100.22  36.093  24.105
1100.72  36.029  24.013
1101.22  35.965  24.013
1101.72  36.029  24.043
1102.22  36.029  24.043
1102.72  35.965  24.043
1103.22  36.029  24.043
1103.72  36.221  24.043
1104.22  36.029  24.074
1104.72  36.029  24.105
1105.22  35.965  24.043
1105.72  36.029  24.013
1106.22  36.029  24.043
1106.72  36.093  24.013
1107.22  36.029  24.013
1107.72  35.965  23.982
1108.22  35.901  24.013
1108.72  35.965  24.043
1109.22  35.965  24.013
1109.72  35.965  24.043
1110.22  36.029  23.982
1110.72  36.093  24.013
1111.22  36.029  24.043
1111.72  36.029  24.013
1112.22  36.029  24.043
1112.72  36.029  24.074
1113.22  35.965  24.013
1113.72  36.029  24.105
1114.22  36.029  24.013
1114.72  35.965  24.043
1115.22  36.029  24.013
1115.72  36.029  24.013
1116.22  36.029  24.074
1116.72  36.029  24.074
1117.22  36.029  24.043
1117.72  36.029  24.043
1118.22  35.965  24.043
1118.72  36.157  24.043
1119.22  36.157  24.074
1119.72  36.029  24.043
1120.22  36.093  24.043
1120.72  36.029  24.043
1121.22  36.029  24.074
1121.72  36.093  24.074
1122.22  36.029  24.043
1122.72  36.029  23.982
1123.22  36.093  24.013
1123.72  36.029  24.043
1124.22  36.093  24.043
1124.72  36.029  24.013
1125.22  35.965  24.074
1125.72  36.093  24.043
1126.22  36.029  24.013
1126.72  36.029  24.043
1127.22  36.029  23.982
1127.72  36.029  24.074
1128.22  36.093  24.074
1128.72  36.093  24.043
1129.22  36.093  24.043
1129.72  36.093  24.074
1130.22  36.029  24.013
1130.72  36.029  24.043
1131.22  36.029  24.013
1131.72  36.093  24.043
1132.22  36.093  24.043
1132.72  36.029  24.043
1133.22  36.029  24.013
1133.72  36.221  24.074
1134.22  35.965  24.043
1134.72  36.285  24.013
1135.22  36.029  24.043
1135.72  36.157  24.013
1136.22  36.029  24.043
1136.72  36.093  24.043
1137.22  36.029  24.043
1137.72  36.029  24.043
1138.22  35.965  24.013
1138.72  36.093  24.043
1139.22  36.093  24.043
1139.72  36.093  24.043
1140.22  36.093  24.043
1140.72  36.157  24.043
1141.22  36.093  24.043
1141.72  36.093  24.043
1142.22  36.093  24.043
1142.72  36.157  24.043
1143.22  36.029  24.074
1143.72  36.157  24.043
1144.22  36.029  24.043
1144.72  36.093  24.013
1145.22  36.093  24.043
1145.72  36.093  24.013
1146.22  36.093  24.043
1146.72  36.093  24.043
1147.22  36.029  24.013
1147.72  36.093  24.043
1148.22  36.093  24.043
1148.72  36.157  24.043
1149.22  36.093  24.043
1149.72  36.093  24.043
1150.22  36.029  24.043
1150.72  36.093  24.043
1151.22  36.093  24.074
1151.72  36.157  24.013
1152.22  36.029  24.043
1152.72  36.029  24.043
1153.22  36.093  24.043
1153.72  36.093  24.043
1154.22  36.093  24.043
1154.72  36.029  24.043
1155.22  36.093  24.043
1155.72  36.093  24.043
1156.22  36.029  24.074
1156.72  36.093  24.043
1157.22  36.093  24.013
1157.72  36.157  24.074
1158.22  36.157  24.043
1158.72  36.157  24.043
1159.22  36.157  24.105
1159.72  36.093  24.043
1160.22  36.157  24.013
1160.72  36.221  24.043
1161.22  36.093  24.043
1161.72  36.093  24.074
1162.22  36.157  24.074
1162.72  36.093  24.043
1163.22  36.157  24.043
1163.72  36.157  24.013
1164.22  36.093  24.013
1164.72  36.285  24.043
1165.22  36.093  24.013
1165.72  36.157  24.074
1166.22  36.221  24.043
1166.72  36.093  24.074
1167.22  36.157  24.043
1167.72  36.157  24.074
1168.22  36.157  24.043
1168.72  36.093  24.043
1169.22  36.157  24.043
1169.72  36.157  24.043
1170.22  36.029  24.043
1170.72  36.093  24.043
1171.22  36.221  24.043
1171.72  36.093  24.043
1172.22  36.221  24.043
1172.72  36.157  24.074
1173.22  36.157  24.074
1173.72  36.093  24.043
1174.22  36.093  24.074
1174.72  36.093  24.043
1175.22  36.093  24.043
1175.72  36.157  24.074
1176.22  36.157  24.043
1176.72  36.157  24.074
1177.22  36.093  24.043
1177.72  36.093  24.043
1178.22  36.157  24.043
1178.72  36.029  24.043
1179.22  36.093  24.074
1179.72  36.157  24.074
1180.22  36.093  24.043
1180.72  36.093  24.074
1181.22  36.157  24.043
1181.73  36.157  24.043
1182.23  36.221  24.105
1182.73  36.221  24.074
1183.23  36.221  24.043
1183.73  36.157  24.074
1184.23  36.349  24.043
1184.73  36.093  24.043
1185.23  36.157  24.074
1185.73  36.093  24.074
1186.23  36.157  24.074
1186.73  36.221  24.105
1187.23  36.157  24.043
1187.73  36.157  24.043
1188.23  36.157  24.074
1188.73  36.221  24.074
1189.23  36.157  24.074
1189.73  36.221  24.043
1190.23  36.221  24.043
1190.73  36.157  24.043
1191.23  36.221  24.043
1191.73  36.157  24.074
1192.23  36.157  24.074
1192.73  36.157  24.013
1193.23  36.221  24.074
1193.73  36.157  24.043
1194.23  36.157  24.043
1194.73  36.157  24.043
1195.23  36.157  24.043
1195.73  36.221  24.043
1196.23  36.093  24.074
1196.73  36.157  24.074
1197.23  36.157  24.043
1197.73  36.093  24.043
1198.23  36.221  24.074
1198.73  36.157  24.043
1199.23  36.285  24.013
1199.73  36.157  24.074
1200.23  36.157  24.074
1200.73  36.285  24.043
1201.23  36.221  24.013
1201.73  36.157  24.043
1202.23  36.157  24.074
1202.73  36.221  24.105
1203.23  36.221  24.074
1203.73  36.221  24.074
1204.23  36.285  24.043
1204.73  36.221  24.074
1205.23  36.221  24.043
1205.73  36.157  24.043
1206.23  36.157  24.074
1206.73  36.157  24.043
1207.23  36.221  24.074
1207.73  36.285  24.074
1208.23  36.285  24.043
1208.73  36.285  24.043
1209.23  36.221  24.074
1209.73  36.221  24.074
1210.23  36.285  24.105
1210.73  36.157  24.074
1211.23  36.221  24.074
1211.73  36.221  24.043
1212.23  36.285  24.013
1212.73  36.221  24.074
1213.23  36.285  24.074
1213.73  36.221  24.043
1214.23  36.221  24.043
1214.73  36.157  24.013
1215.23  36.157  24.043
1215.73  36.221  24.074
1216.23  36.221  24.043
1216.73  36.221  24.074
1217.23  36.221  24.074
1217.73  36.221  24.043
1218.23  36.221  24.043
1218.73  36.221  24.074
1219.23  36.221  24.043
1219.73  36.285  24.074
1220.23  36.221  24.043
1220.73  36.285  24.074
1221.23  36.221  24.074
1221.73  36.285  24.043
1222.23  36.285  24.043
1222.73  36.221  24.105
1223.23  36.157  24.013
1223.73  36.221  24.074
1224.23  36.157  24.043
1224.73  36.221  24.043
1225.23  36.285  24.043
1225.73  36.221  24.074
1226.23  36.285  24.043
1226.73  36.221  24.074
1227.23  36.157  24.074
1227.73  36.221  24.043
1228.23  36.221  24.074
1228.73  36.221  24.074
1229.23  36.285  24.074
1229.73  36.221  24.074
1230.23  36.157  24.043
1230.73  36.221  24.043
1231.23  36.285  24.074
1231.73  36.221  24.043
1232.23  36.157  24.074
1232.73  36.221  24.043
1233.23  36.285  24.074
1233.73  36.221  24.136
1234.23  36.285  24.043
1234.73  36.413  24.074
1235.23  36.221  24.043
1235.73  36.285  24.105
1236.23  36.221  24.043
1236.73  36.285  24.074
1237.23  36.285  24.043
1237.73  36.221  24.043
1238.23  36.221  24.074
1238.73  36.221  24.074
1239.23  36.221  24.074
1239.73  36.285  24.043
1240.23  36.221  24.074
1240.73  36.285  24.105
1241.23  36.285  24.074
1241.73  36.285  24.074
1242.23  36.285  24.105
1242.73  36.221  24.074
1243.23  36.221  24.043
1243.73  36.221  24.074
1244.23  36.285  24.074
1244.73  36.221  24.136
1245.23  36.285  24.074
1245.73  36.285  24.043
1246.23  36.349  24.074
1246.73  36.157  24.043
1247.23  36.285  24.074
1247.73  36.285  24.074
1248.23  36.221  24.043
1248.73  36.285  24.074
1249.23  36.285  24.043
1249.73  36.221  24.043
1250.23  36.285  24.043
1250.73  36.285  24.043
1251.23  36.285  24.074
1251.73  36.349  24.074
1252.23  36.221  24.043
1252.73  36.285  24.105
1253.23  36.285  24.043
1253.73  36.285  24.105
1254.23  36.285  24.074
1254.73  36.413  24.074
1255.23  36.349  24.074
1255.73  36.221  24.074
1256.23  36.285  24.043
1256.73  36.221  24.074
1257.23  36.285  24.074
1257.73  36.349  24.013
1258.23  36.221  24.105
1258.73  36.285  23.982
1259.23  36.349  24.074
1259.73  36.285  24.074
1260.23  36.221  24.074
1260.73  36.221  24.074
1261.23  36.349  24.074
1261.73  36.349  24.074
1262.23  36.285  24.074
1262.73  36.285  24.074
1263.23  36.349  24.043
1263.73  36.221  24.105
1264.23  36.413  24.105
1264.73  36.285  24.074
1265.23  36.285  24.074
1265.73  36.349  24.105
1266.23  36.285  24.074
1266.73  36.349  24.074
1267.23  36.413  24.074
1267.73  36.221  24.074
1268.23  36.221  24.043
1268.73  36.285  24.074
1269.23  36.349  24.013
1269.73  36.221  24.074
1270.23  36.285  24.074
1270.73  36.349  24.074
1271.23  36.285  24.013
1271.73  36.285  24.074
1272.23  36.349  24.043
1272.73  36.285  24.105
1273.23  36.285  24.074
1273.73  36.349  24.074
1274.23  36.349  24.105
1274.73  36.285  24.074
1275.23  36.221  24.074
1275.73  36.349  24.074
1276.23  36.349  24.074
1276.73  36.349  24.074
1277.23  36.349  24.074
1277.73  36.285  24.136
1278.23  36.349  24.074
1278.73  36.349  24.105
1279.23  36.349  24.074
1279.73  36.349  24.074
1280.23  36.285  24.074
1280.73  36.413  24.105
1281.23  36.285  24.043
1281.73  36.413  24.074
1282.23  36.349  24.043
1282.73  36.349  24.074
1283.23  36.349  24.074
1283.73  36.285  24.043
1284.23  36.349  24.043
1284.73  36.349  24.043
1285.23  36.349  24.074
1285.73  36.349  24.105
1286.23  36.413  24.074
1286.73  36.349  24.074
1287.23  36.349  24.074
1287.73  36.285  24.136
1288.23  36.349  24.074
1288.73  36.413  24.074
1289.23  36.413  24.074
1289.73  36.349  24.043
1290.23  36.349  24.074
1290.73  36.349  24.105
1291.23  36.349  24.074
1291.73  36.349  24.043
1292.23  36.413  24.105
1292.73  36.349  24.105
1293.23  36.349  24.074
1293.73  36.413  24.105
1294.23  36.349  24.074
1294.73  36.349  24.105
1295.24  36.349  24.105
1295.74  36.349  24.074
1296.24  36.349  24.074
1296.74  36.349  24.105
1297.24  36.349  24.105
1297.74  36.413  24.136
1298.24  36.413  24.074
1298.74  36.349  24.043
1299.24  36.349  24.074
1299.74  36.285  24.105
1300.24  36.413  24.074
1300.74  36.413  24.074
1301.24  36.413  24.105
1301.74  36.477  24.074
1302.24  36.477  24.043
1302.74  36.413  24.105
1303.24  36.349  24.136
1303.74  36.349  23.982
1304.24  36.349  24.013
1304.74  36.413  24.074
1305.24  36.285  24.074
1305.74  36.285  24.074
1306.24  36.413  24.105
1306.74  36.413  24.074
1307.24  36.413  24.105
1307.74  36.413  24.043
1308.24  36.413  24.074
1308.74  36.349  24.074
1309.24  36.477  24.043
1309.74  36.413  24.043
1310.24  36.413  24.074
1310.74  36.285  24.074
1311.24  36.413  24.074
1311.74  36.349  24.074
1312.24  36.285  24.074
1312.74  36.413  24.105
1313.24  36.349  24.074
1313.74  36.413  24.074
1314.24  36.477  24.105
1314.74  36.349  24.136
1315.24  36.477  24.074
1315.74  36.413  24.074
1316.24  36.413  24.105
1316.74  36.413  24.136
1317.24  36.413  24.074
1317.74  36.413  24.074
1318.24  36.413  24.105
1318.74  36.349  24.074
1319.24  36.413  24.136
1319.74  36.349  24.074
1320.24  36.413  24.043
1320.74  36.477  24.074
1321.24  36.413  24.074
1321.74  36.285  24.074
1322.24  36.285  24.105
1322.74  36.541  24.074
1323.24  36.477  24.074
1323.74  36.413  24.105
1324.24  36.413  24.074
1324.74  36.413  24.074
1325.24  36.477  24.105
1325.74  36.413  24.074
1326.24  36.413  24.074
1326.74  36.413  24.167
1327.24  36.477  24.105
1327.74  36.413  24.105
1328.24  36.413  24.074
1328.74  36.477  24.074
1329.24  36.541  24.043
1329.74  36.349  24.105
1330.24  36.413  24.074
1330.74  36.349  24.105
1331.24  36.477  24.105
1331.74  36.413  24.043
1332.24  36.413  24.074
1332.74  36.413  24.136
1333.24  36.413  24.136
1333.74  36.413  24.074
1334.24  36.541  24.105
1334.74  36.477  24.105
1335.24  36.413  24.105
1335.74  36.477  24.136
1336.24  36.413  24.105
1336.74  36.477  24.105
1337.24  36.541  24.074
1337.74  36.413  24.105
1338.24  36.477  24.105
1338.74  36.413  24.167
1339.24  36.413  24.074
1339.74  36.477  24.105
1340.24  36.413  24.105
1340.74  36.477  24.105
1341.24  36.477  24.105
1341.74  36.477  24.105
1342.24  36.477  24.074
1342.74  36.413  24.105
1343.24  36.413  24.136
1343.74  36.413  24.105
1344.24  36.413  24.074
1344.74  36.477  24.105
1345.24  36.477  24.074
1345.74  36.669  24.074
1346.24  36.477  24.074
1346.74  36.477  24.105
1347.24  36.285  24.105
1347.74  36.413  24.043
1348.24  36.477  24.105
1348.74  36.413  24.074
1349.24  36.413  24.136
1349.74  36.413  24.074
1350.24  36.541  24.074
1350.74  36.477  24.105
1351.24  36.413  24.074
1351.74  36.477  24.105
1352.24  36.413  24.105
1352.74  36.477  24.105
1353.24  36.413  24.105
1353.74  36.413  24.074
1354.24  36.477  24.105
1354.74  36.477  24.105
1355.24  36.477  24.074
1355.74  36.413  24.074
1356.24  36.477  24.074
1356.74  36.477  24.105
1357.24  36.477  24.074
1357.74  36.349  24.105
1358.24  36.477  24.105
1358.74  36.477  24.043
1359.24  36.477  24.074
1359.74  36.413  24.105
1360.24  36.477  24.105
1360.74  36.477  24.105
1361.24  36.413  24.074
1361.74  36.477  24.105
1362.24  36.477  24.074
1362.74  36.477  24.105
1363.24  36.477  24.074
1363.74  36.413  24.074
1364.24  36.477  24.105
1364.74  36.477  24.074
1365.24  36.413  24.105
1365.74  36.477  24.105
1366.24  36.477  24.136
1366.74  36.477  24.105
1367.24  36.477  24.105
1367.74  36.477  24.105
1368.24  36.477  24.074
1368.74  36.477  24.105
1369.24  36.477  24.074
1369.74  36.413  24.074
1370.24  36.413  24.074
1370.74  36.541  24.074
1371.24  36.541  24.136
1371.74  36.477  24.074
1372.24  36.477  24.105
1372.74  36.477  24.105
1373.24  36.477  24.074
1373.74  36.477  24.105
1374.24  36.541  24.105
1374.74  36.477  24.136
1375.24  36.477  24.105
1375.74  36.541  24.105
1376.24  36.477  24.105
1376.74  36.477  24.074
1377.24  36.477  24.074
1377.74  36.541  24.105
1378.24  36.477  24.074
1378.74  36.413  24.105
1379.24  36.477  24.074
1379.74  36.605  24.074
1380.24  36.541  24.105
1380.74  36.605  24.105
1381.24  36.541  24.105
1381.74  36.413  24.105
1382.24  36.477  24.043
1382.74  36.541  24.136
1383.24  36.605  24.105
1383.74  36.541  24.074
1384.24  36.477  24.136
1384.74  36.477  24.074
1385.24  36.477  24.074
1385.74  36.541  24.105
1386.24  36.541  24.105
1386.74  36.477  24.074
1387.24  36.541  24.074
1387.74  36.477  24.074
1388.24  36.605  24.105
1388.74  36.413  24.105
1389.24  36.541  24.105
1389.74  36.605  24.105
1390.24  36.477  24.105
1390.74  36.477  24.105
1391.24  36.413  24.105
1391.74  36.477  24.074
1392.24  36.605  24.105
1392.74  36.541  24.105
1393.24  36.541  24.074
1393.74  36.669  24.136
1394.24  36.541  24.136
1394.74  36.541  24.074
1395.24  36.605  24.136
1395.74  36.541  24.105
1396.24  36.477  24.074
1396.74  36.541  24.105
1397.24  36.477  24.105
1397.74  36.541  24.105
1398.24  36.541  24.136
1398.74  36.541  24.105
1399.24  36.541  24.105
1399.74  36.541  24.105
1400.24  36.605  24.197
1400.74  36.541  24.105
1401.24  36.541  24.136
1401.74  36.605  24.105
1402.24  36.669  24.105
1402.74  36.605  24.105
1403.24  36.541  24.105
1403.74  36.541  24.105
1404.24  36.541  24.105
1404.74  36.797  24.105
1405.24  36.605  24.136
1405.74  36.605  24.105
1406.24  36.605  24.105
1406.74  36.541  24.105
1407.24  36.541  24.105
1407.74  36.541  24.167
1408.25  36.605  24.136
1408.75  36.541  24.105
1409.25  36.669  24.043
1409.75  36.477  24.074
1410.25  36.541  24.074
1410.75  36.541  24.105
1411.25  36.477  24.074
1411.75  36.541  24.167
1412.25  36.477  24.136
1412.75  36.541  24.074
1413.25  36.605  24.136
1413.75  36.541  24.105
1414.25  36.541  24.105
1414.75  36.541  24.105
1415.25  36.541  24.105
1415.75  36.605  24.105
1416.25  36.541  24.074
1416.75  36.477  24.105
1417.25  36.541  24.105
1417.75  36.669  24.105
1418.25  36.541  24.136
1418.75  36.541  24.136
1419.25  36.605  24.136
1419.75  36.541  24.105
1420.25  36.541  24.105
1420.75  36.541  24.136
1421.25  36.541  24.105
1421.75  36.541  24.136
1422.25  36.605  24.105
1422.75  36.541  24.136
1423.25  36.541  24.105
1423.75  36.605  24.105
1424.25  36.605  24.136
1424.75  36.605  24.105
1425.25  36.477  24.105
1425.75  36.541  24.074
1426.25  36.541  24.136
1426.75  36.541  24.074
1427.25  36.541  24.136
1427.75  36.541  24.105
1428.25  36.541  24.136
1428.75  36.669  24.105
1429.25  36.605  24.136
1429.75  36.541  24.105
1430.25  36.605  24.105
1430.75  36.541  24.105
1431.25  36.605  24.074
1431.75  36.541  24.136
1432.25  36.413  24.105
1432.75  36.605  24.136
1433.25  36.605  24.105
1433.75  36.669  24.105
1434.25  36.605  24.105
1434.75  36.605  24.136
1435.25  36.541  24.074
1435.75  36.669  24.136
1436.25  36.733  24.136
1436.75  36.669  24.136
1437.25  36.669  24.136
1437.75  36.541  24.136
1438.25  36.605  24.105
1438.75  36.605  24.105
1439.25  36.605  24.105
1439.75  36.669  24.105
1440.25  36.669  24.105
1440.75  36.605  24.105
1441.25  36.605  24.105
1441.75  36.605  24.105
1442.25  36.541  24.105
1442.75  36.605  24.105
1443.25  36.605  24.105
1443.75  36.605  24.136
1444.25  36.605  24.105
1444.75  36.605  24.105
1445.25  36.605  24.074
1445.75  36.605  24.105
1446.25  36.669  24.136
1446.75  36.605  24.105
1447.25  36.605  24.136
1447.75  36.605  24.105
1448.25  36.669  24.136
1448.75  36.733  24.167
1449.25  36.669  24.167
1449.75  36.605  24.136
1450.25  36.669  24.136
1450.75  36.541  24.105
1451.25  36.541  24.105
1451.75  36.669  24.136
1452.25  36.605  24.105
1452.75  36.477  24.105
1453.25  36.605  24.136
1453.75  36.605  24.136
1454.25  36.669  24.167
1454.75  36.669  24.136
1455.25  36.605  24.105
1455.75  36.605  24.136
1456.25  36.605  24.136
1456.75  36.605  24.105
1457.25  36.605  24.167
1457.75  36.541  24.105
1458.25  36.669  24.105
1458.75  36.605  24.105
1459.25  36.605  24.136
1459.75  36.669  24.136
1460.25  36.605  24.105
1460.75  36.669  24.136
1461.25  36.605  24.105
1461.75  36.669  24.136
1462.25  36.669  24.105
1462.75  36.669  24.105
1463.25  36.669  24.136
1463.75  36.669  24.167
1464.25  36.733  24.105
1464.75  36.669  24.105
1465.25  36.605  24.105
1465.75  36.605  24.105
1466.25  36.669  24.105
1466.75  36.605  24.136
1467.25  36.605  24.136
1467.75  36.669  24.136
1468.25  36.605  24.136
1468.75  36.605  24.105
1469.25  36.669  24.105
1469.75  36.541  24.105
1470.25  36.605  24.105
1470.75  36.605  24.105
1471.25  36.669  24.136
1471.75  36.605  24.136
1472.25  36.669  24.105
1472.75  36.669  24.136
1473.25  36.605  24.136
1473.75  36.605  24.136
1474.25  36.669  24.105
1474.75  36.733  24.136
1475.25  36.669  24.136
1475.75  36.669  24.105
1476.25  36.605  24.105
1476.75  36.669  24.136
1477.25  36.733  24.136
1477.75  36.669  24.136
1478.25  36.669  24.105
1478.75  36.605  24.074
1479.25  36.605  24.136
1479.75  36.669  24.105
1480.25  36.669  24.136
1480.75  36.669  24.105
1481.25  36.669  24.136
1481.75  36.541  24.105
1482.25  36.669  24.136
1482.75  36.605  24.136
1483.25  36.669  24.105
1483.75  36.669  24.136
1484.25  36.541  24.167
1484.75  36.669  24.136
1485.25  36.669  24.136
1485.75  36.733  24.136
1486.25  36.605  24.105
1486.75  36.669  24.136
1487.25  36.669  24.136
1487.75  36.733  24.136
1488.25  36.733  24.136
1488.75  36.733  24.136
1489.25  36.733  24.167
1489.75  36.669  24.136
1490.25  36.733  24.136
1490.75  36.605  24.136
1491.25  36.669  24.105
1491.75  36.797  24.105
1492.25  36.669  24.105
1492.75  36.733  24.105
1493.25  36.733  24.167
1493.75  36.733  24.136
1494.25  36.669  24.074
1494.75  36.605  24.105
1495.25  36.669  24.197
1495.75  36.797  24.105
1496.25  36.669  24.136
1496.75  36.669  24.105
1497.25  36.669  24.136
1497.75  36.861  24.136
1498.25  36.797  24.136
1498.75  36.669  24.105
1499.25  36.669  24.136
1499.75  36.733  24.136
1500.25  36.669  24.136
1500.75  36.733  24.136
1501.25  36.733  24.136
1501.75  36.669  24.167
1502.25  36.669  24.136
1502.75  36.669  24.105
1503.25  36.669  24.136
1503.75  36.669  24.136
1504.25  36.669  24.136
1504.75  36.733  24.136
1505.25  36.797  24.136
1505.75  36.669  24.136
1506.25  36.733  24.136
1506.75  36.733  24.136
1507.25  36.669  24.136
1507.75  36.669  24.105
1508.25  36.669  24.136
1508.75  36.733  24.136
1509.25  36.733  24.136
1509.75  36.733  24.136
1510.26  36.669  24.105
1510.76  36.669  24.105
1511.26  36.733  24.136
1511.76  36.797  24.136
1512.26  36.733  24.136
1512.76  36.733  24.136
1513.26  36.669  24.105
1513.76  36.861  24.136
1514.26  36.669  24.105
1514.76  36.797  24.136
1515.26  36.669  24.167
1515.76  36.733  24.136
1516.26  36.733  24.136
1516.76  36.669  24.197
1517.26  36.797  24.167
1517.76  36.733  24.136
1518.26  36.733  24.105
1518.76  36.669  24.136
1519.26  36.669  24.167
1519.76  36.733  24.136
1520.26  36.669  24.105
1520.76  36.669  24.136
1521.26  36.733  24.136
1521.76  36.733  24.105
1522.26  36.669  24.105
1522.76  36.733  24.136
1523.26  36.733  24.136
1523.76  36.669  24.136
1524.26  36.669  24.136
1524.76  36.797  24.136
1525.26  36.797  24.136
1525.76  36.733  24.136
1526.26  36.669  24.136
1526.76  36.605  24.136
1527.26  36.797  24.136
1527.76  36.669  24.136
1528.26  36.669  24.136
1528.76  36.733  24.167
1529.26  36.797  24.136
1529.76  36.669  24.136
1530.26  36.669  24.136
1530.76  36.733  24.167
1531.26  36.669  24.136
1531.76  36.669  24.136
1532.26  36.669  24.136
1532.76  36.925  24.167
1533.26  36.541  24.105
1533.76  36.797  24.136
1534.26  36.733  24.167
1534.76  36.733  24.136
1535.26  36.733  24.136
1535.76  36.733  24.136
1536.26  36.733  24.136
1536.76  36.733  24.074
1537.26  36.733  24.105
1537.76  36.733  24.136
1538.26  36.861  24.136
1538.76  36.669  24.136
1539.26  36.797  24.136
1539.76  36.733  24.105
1540.26  36.733  24.136
1540.76  36.733  24.105
1541.26  36.669  24.136
1541.76  36.861  24.167
1542.26  36.733  24.167
1542.76  36.733  24.136
1543.26  36.733  24.136
1543.76  36.733  24.167
1544.26  36.733  24.167
1544.76  36.733  24.167
1545.26  36.797  24.136
1545.76  36.861  24.167
1546.26  36.797  24.167
1546.76  36.733  24.167
1547.26  36.797  24.167
1547.76  36.733  24.136
1548.26  36.797  24.136
1548.76  36.733  24.167
1549.26  36.797  24.136
1549.76  36.733  24.136
1550.26  36.733  24.105
1550.76  36.733  24.136
1551.26  36.733  24.167
1551.76  36.797  24.136
1552.26  36.733  24.167
1552.76  36.797  24.167
1553.26  36.733  24.136
1553.76  36.733  24.105
1554.26  36.797  24.136
1554.76  36.797  24.136
1555.26  36.669  24.105
1555.76  36.797  24.136
1556.26  36.733  24.105
1556.76  36.669  24.167
1557.26  36.797  24.136
1557.76  36.733  24.136
1558.26  36.733  24.136
1558.76  36.733  24.105
1559.26  36.797  24.167
1559.76  36.733  24.167
1560.26  36.797  24.136
1560.76  36.797  24.136
1561.26  36.733  24.136
1561.76  36.797  24.167
1562.26  36.797  24.136
1562.76  36.797  24.136
1563.26  36.797  24.136
1563.76  36.733  24.167
1564.26  36.797  24.136
1564.76  36.797  24.167
1565.26  36.797  24.167
1565.76  36.861  24.136
1566.26  36.797  24.136
1566.76  36.797  24.136
1567.26  36.797  24.167
1567.76  36.797  24.136
1568.26  36.797  24.136
1568.76  36.797  24.136
1569.26  36.797  24.136
1569.76  36.797  24.105
1570.26  36.797  24.167
1570.76  36.797  24.136
1571.26  36.797  24.136
1571.76  36.797  24.136
1572.26  36.861  24.136
1572.76  36.669  24.167
1573.26  36.797  24.136
1573.76  36.733  24.167
1574.26  36.797  24.136
1574.76  36.797  24.136
1575.26  36.733  24.136
1575.76  36.797  24.136
1576.26  36.797  24.136
1576.76  36.733  24.136
1577.26  36.797  24.167
1577.76  36.797  24.136
1578.26  36.733  24.167
1578.76  36.733  24.136
1579.26  36.797  24.136
1579.76  36.797  24.167
1580.26  36.797  24.136
1580.76  36.669  24.167
1581.26  36.861  24.074
1581.76  36.797  24.167
1582.26  36.797  24.136
1582.76  36.733  24.167
1583.26  36.797  24.167
1583.76  36.797  24.167
1584.26  36.861  24.197
1584.76  36.861  24.167
1585.26  36.733  24.167
1585.76  36.733  24.136
1586.26  36.797  24.167
1586.76  36.797  24.136
1587.26  36.733  24.167
1587.76  36.861  24.167
1588.26  36.733  24.167
1588.76  36.797  24.136
1589.26  36.797  24.136
1589.76  36.797  24.167
1590.26  36.797  24.167
1590.76  36.861  24.105
1591.26  36.925  24.167
1591.76  36.861  24.136
1592.26  36.861  24.136
1592.76  36.733  24.136
1593.26  36.797  24.167
1593.76  36.797  24.167
1594.26  36.797  24.167
1594.76  36.797  24.136
1595.26  36.797  24.136
1595.76  36.733  24.136
1596.26  36.733  24.167
1596.76  36.797  24.136
1597.26  36.797  24.167
1597.76  36.797  24.136
1598.26  36.733  24.167
1598.76  36.861  24.167
1599.26  36.797  24.167
1599.76  36.861  24.167
1600.26  36.861  24.228
1600.76  36.861  24.167
1601.26  36.733  24.167
1601.76  36.797  24.167
1602.26  36.797  24.197
1602.76  36.861  24.167
1603.26  36.861  24.136
1603.76  36.797  24.136
1604.26  36.797  24.167
1604.76  36.861  24.167
1605.26  37.053  24.136
1605.76  36.861  24.136
1606.26  36.861  24.167
1606.76  36.797  24.136
1607.26  36.797  24.167
1607.76  36.925  24.136
1608.26  36.861  24.167
1608.76  36.797  24.136
1609.26  36.925  24.197
1609.76  36.861  24.136
1610.26  36.797  24.167
1610.76  36.797  24.167
1611.26  36.925  24.136
1611.76  36.797  24.167
1612.26  36.861  24.167
1612.76  36.797  24.197
1613.26  36.797  24.167
1613.76  36.797  24.167
1614.26  36.797  24.228
1614.76  36.861  24.167
1615.26  36.925  24.136
1615.76  36.797  24.136
1616.26  36.861  24.167
1616.76  36.861  24.136
1617.26  36.861  24.197
1617.76  36.797  24.136
1618.26  36.797  24.136
1618.76  36.861  24.167
1619.26  36.861  24.136
1619.76  36.733  24.167
1620.26  36.925  24.167
1620.76  36.797  24.167
1621.26  36.797  24.167
1621.76  36.797  24.136
1622.26  36.861  24.136
1622.76  36.861  24.167
1623.26  36.925  24.167
1623.77  36.861  24.167
1624.27  36.861  24.136
1624.77  36.861  24.167
1625.27  36.861  24.167
1625.77  36.797  24.136
1626.27  36.797  24.167
1626.77  36.861  24.136
1627.27  36.733  24.167
1627.77  36.797  24.167
1628.27  36.797  24.167
1628.77  36.861  24.167
1629.27  36.861  24.167
1629.77  36.861  24.167
1630.27  36.861  24.167
1630.77  36.861  24.167
1631.27  36.925  24.136
1631.77  36.797  24.167
1632.27  36.797  24.167
1632.77  36.989  24.167
1633.27  36.797  24.167
1633.77  36.925  24.197
1634.27  36.925  24.136
1634.77  36.861  24.167
1635.27  36.925  24.167
1635.77  36.797  24.167
1636.27  36.797  24.136
1636.77  36.861  24.259
1637.27  36.861  24.167
1637.77  36.797  24.167
1638.27  36.925  24.167
1638.77  36.861  24.167
1639.27  36.797  24.136
1639.77  36.861  24.167
1640.27  36.925  24.136
1640.77  36.861  24.167
1641.27  36.861  24.167
1641.77  36.925  24.167
1642.27  36.925  24.167
1642.77  36.797  24.136
1643.27  36.925  24.167
1643.77  36.861  24.136
1644.27  36.797  24.136
1644.77  36.925  24.167
1645.27  36.861  24.197
1645.77  36.861  24.167
1646.27  36.861  24.136
1646.77  36.925  24.167
1647.27  36.925  24.136
1647.77  36.861  24.167
1648.27  36.797  24.167
1648.77  36.989  24.197
1649.27  36.861  24.136
1649.77  36.861  24.167
1650.27  36.989  24.136
1650.77  36.861  24.136
1651.27  36.861  24.228
1651.77  36.861  24.136
1652.27  36.861  24.136
1652.77  37.117  24.197
1653.27  36.797  24.136
1653.77  36.861  24.136
1654.27  36.797  24.167
1654.77  37.053  24.136
1655.27  36.925  24.197
1655.77  36.861  24.167
1656.27  36.861  24.197
1656.77  36.861  24.197
1657.27  36.797  24.197
1657.77  36.925  24.167
1658.27  36.925  24.197
1658.77  36.797  24.167
1659.27  36.797  24.167
1659.77  36.861  24.167
1660.27  36.861  24.136
1660.77  36.861  24.136
1661.27  36.925  24.167
1661.77  36.861  24.167
1662.27  36.925  24.167
1662.77  36.925  24.136
1663.27  36.989  24.136
1663.77  36.861  24.167
1664.27  36.989  24.167
1664.77  36.861  24.136
1665.27  36.925  24.167
1665.77  36.861  24.136
1666.27  36.925  24.167
1666.77  36.925  24.167
1667.27  36.925  24.136
1667.77  36.925  24.167
1668.27  36.861  24.167
1668.77  36.989  24.167
1669.27  36.797  24.136
1669.77  36.861  24.228
1670.27  36.925  24.167
1670.77  36.925  24.197
1671.27  36.861  24.167
1671.77  36.797  24.167
1672.27  36.925  24.197
1672.77  36.861  24.136
1673.27  36.861  24.136
1673.77  36.925  24.167
1674.27  36.861  24.167
1674.77  36.925  24.167
1675.27  36.925  24.167
1675.77  36.925  24.167
1676.27  36.925  24.167
1676.77  36.989  24.167
1677.27  36.925  24.167
1677.77  36.925  24.167
1678.27  36.861  24.197
1678.77  36.925  24.167
1679.27  36.797  24.167
1679.77  37.053  24.197
1680.27  36.989  24.197
1680.77  36.861  24.167
1681.27  36.861  24.197
1681.77  36.861  24.167
1682.27  36.925  24.197
1682.77  36.925  24.167
1683.27  36.925  24.197
1683.77  36.861  24.105
1684.27  36.925  24.167
1684.77  36.925  24.136
1685.27  36.925  24.167
1685.77  37.117  24.167
1686.27  36.861  24.167
1686.77  36.989  24.197
1687.27  36.861  24.197
1687.77  36.861  24.197
1688.27  36.925  24.136
1688.77  36.925  24.167
1689.27  36.925  24.197
1689.77  36.989  24.167
1690.27  36.989  24.167
1690.77  36.861  24.197
1691.27  36.925  24.136
1691.77  36.989  24.167
1692.27  36.989  24.167
1692.77  36.925  24.167
1693.27  36.989  24.167
1693.77  36.925  24.197
1694.27  36.989  24.197
1694.77  36.925  24.167
1695.27  36.925  24.228
1695.77  36.989  24.197
1696.27  36.925  24.167
1696.77  36.925  24.167
1697.27  36.733  24.167
1697.77  36.925  24.136
1698.27  36.925  24.197
1698.77  36.861  24.167
1699.27  36.925  24.167
1699.77  36.925  24.197
1700.27  36.925  24.197
1700.77  37.053  24.167
1701.27  36.925  24.197
1701.77  36.861  24.197
1702.27  36.925  24.167
1702.77  36.925  24.167
1703.27  36.989  24.167
1703.77  36.925  24.167
1704.27  36.925  24.167
1704.77  36.925  24.167
1705.27  36.925  24.167
1705.77  36.989  24.167
1706.27  36.925  24.167
1706.77  36.925  24.136
1707.27  36.989  24.167
1707.77  36.925  24.167
1708.27  36.925  24.167
1708.77  36.925  24.136
1709.27  36.925  24.105
1709.77  36.989  24.167
1710.27  36.861  24.136
1710.77  36.925  24.136
1711.27  36.925  24.167
1711.77  36.861  24.197
1712.27  36.925  24.197
1712.77  36.989  24.167
1713.27  36.989  24.136
1713.77  36.989  24.167
1714.27  37.053  24.167
1714.77  36.925  24.167
1715.27  36.989  24.167
1715.77  36.925  24.136
1716.27  36.925  24.167
1716.77  36.925  24.167
1717.27  36.861  24.167
1717.77  36.925  24.167
1718.27  37.053  24.197
1718.77  36.925  24.197
1719.27  36.925  24.228
1719.77  36.861  24.197
1720.27  36.989  24.197
1720.77  36.925  24.197
1721.27  36.925  24.167
1721.77  36.925  24.197
1722.27  36.989  24.228
1722.77  36.989  24.228
1723.27  36.989  24.197
1723.77  36.925  24.136
1724.27  37.053  24.197
1724.77  36.989  24.197
1725.27  36.989  24.197
1725.77  36.989  24.228
1726.27  36.925  24.167
1726.77  36.925  24.197
1727.27  36.989  24.167
1727.77  36.989  24.197
1728.27  36.989  24.167
1728.77  36.989  24.167
1729.27  36.989  24.167
1729.77  36.989  24.167
1730.27  37.117  24.167
1730.77  36.989  24.197
1731.27  36.989  24.197
1731.77  36.989  24.197
1732.27  36.989  24.167
1732.77  36.989  24.167
1733.27  36.925  24.197
1733.77  36.989  24.197
1734.27  36.989  24.197
1734.77  37.053  24.167
1735.27  36.989  24.197
1735.77  36.925  24.197
1736.27  37.053  24.197
1736.78  36.989  24.167
1737.28  37.053  24.197
1737.78  36.925  24.197
1738.28  36.925  24.167
1738.78  36.989  24.167
1739.28  36.925  24.197
1739.78  36.989  24.197
1740.28  36.925  24.167
1740.78  37.181  24.167
1741.28  36.989  24.197
1741.78  36.925  24.167
1742.28  36.925  24.167
1742.78  36.989  24.259
1743.28  36.925  24.197
1743.78  36.989  24.136
1744.28  36.989  24.167
1744.78  37.053  24.167
1745.28  36.925  24.197
1745.78  37.181  24.228
1746.28  36.989  24.197
1746.78  36.989  24.197
1747.28  37.053  24.167
1747.78  36.989  24.136
1748.28  36.989  24.197
1748.78  36.989  24.197
1749.28  36.989  24.167
1749.78  36.989  24.197
1750.28  36.989  24.197
1750.78  37.053  24.197
1751.28  36.989  24.167
1751.78  36.989  24.167
1752.28  36.925  24.197
1752.78  36.925  24.167
1753.28  36.861  24.167
1753.78  36.989  24.136
1754.28  36.989  24.197
1754.78  36.989  24.136
1755.28  36.989  24.197
1755.78  36.989  24.167
1756.28  36.989  24.167
1756.78  36.989  24.167
1757.28  36.989  24.259
1757.78  36.989  24.197
1758.28  36.989  24.197
1758.78  36.989  24.197
1759.28  36.989  24.197
1759.78  36.989  24.197
1760.28  37.117  24.197
1760.78  37.053  24.197
1761.28  37.053  24.197
1761.78  37.053  24.197
1762.28  36.925  24.197
1762.78  36.989  24.197
1763.28  37.053  24.197
1763.78  36.989  24.197
1764.28  36.989  24.167
1764.78  36.989  24.167
1765.28  36.989  24.167
1765.78  37.053  24.197
1766.28  37.053  24.167
1766.78  36.989  24.167
1767.28  36.989  24.167
1767.78  36.989  24.197
1768.28  36.989  24.167
1768.78  36.989  24.197
1769.28  36.989  24.197
1769.78  36.989  24.197
1770.28  37.053  24.197
1770.78  37.053  24.167
1771.28  36.989  24.228
1771.78  36.989  24.197
1772.28  36.989  24.228
1772.78  37.117  24.197
1773.28  37.053  24.197
1773.78  36.989  24.197
1774.28  37.053  24.197
1774.78  37.053  24.197
1775.28  37.053  24.197
1775.78  37.117  24.167
1776.28  36.989  24.197
1776.78  36.925  24.167
1777.28  36.989  24.167
1777.78  37.053  24.259
1778.28  37.053  24.136
1778.78  36.989  24.197
1779.28  36.925  24.136
1779.78  37.053  24.197
1780.28  36.989  24.197
1780.78  37.053  24.197
1781.28  37.053  24.197
1781.78  37.117  24.197
1782.28  37.053  24.167
1782.78  37.117  24.167
1783.28  36.989  24.197
1783.78  37.117  24.167
1784.28  36.989  24.167
1784.78  37.053  24.197
1785.28  36.989  24.197
1785.78  37.181  24.197
1786.28  36.989  24.197
1786.78  36.989  24.228
1787.28  37.053  24.228
1787.78  37.053  24.197
1788.28  36.989  24.197
1788.78  36.989  24.197
1789.28  37.053  24.228
1789.78  37.053  24.197
1790.28  36.989  24.167
1790.78  37.053  24.197
1791.28  37.053  24.167
1791.78  36.989  24.167
1792.28  36.989  24.197
1792.78  37.053  24.167
1793.28  36.989  24.197
1793.78  36.925  24.197
1794.28  37.053  24.197
1794.78  36.989  24.197
1795.28  37.053  24.197
1795.78  36.925  24.197
1796.28  36.989  24.259
1796.78  37.053  24.228
1797.28  37.053  24.259
1797.78  37.053  24.197
1798.28  37.053  24.197
1798.78  36.989  24.167
1799.28  36.989  24.197
1799.78  37.053  24.197
1800.28  37.053  24.228
1800.78  37.053  24.197
1801.28  37.053  24.197
1801.78  37.117  24.197
1802.28  37.053  24.228
1802.78  37.117  24.197
1803.28  37.053  24.197
1803.78  37.053  24.197
1804.28  37.117  24.228
1804.78  37.117  24.197
1805.28  37.053  24.197
1805.78  37.053  24.197
1806.28  36.989  24.228
1806.78  37.053  24.228
1807.28  36.925  24.167
1807.78  37.053  24.197
1808.28  37.053  24.197
1808.78  36.989  24.167
1809.28  37.053  24.197
1809.78  37.053  24.197
1810.28  37.181  24.167
1810.78  37.053  24.228
1811.28  36.989  24.167
1811.78  37.117  24.197
1812.28  37.053  24.197
1812.78  37.053  24.197
1813.28  37.053  24.197
1813.78  37.053  24.197
1814.28  37.053  24.197
1814.78  37.053  24.167
1815.28  36.989  24.197
1815.78  37.053  24.197
1816.28  37.053  24.167
1816.78  37.053  24.197
1817.28  37.117  24.197
1817.78  37.053  24.228
1818.28  37.053  24.197
1818.78  37.053  24.197
1819.28  37.053  24.197
1819.78  37.053  24.197
1820.28  37.117  24.197
1820.78  37.117  24.197
1821.28  37.117  24.228
1821.78  37.053  24.167
1822.28  37.053  24.413
1822.78  37.117  24.290
1823.28  37.117  24.197
1823.78  37.053  24.228
1824.28  37.117  24.167
1824.78  37.053  24.228
1825.28  37.053  24.167
1825.78  37.117  24.228
1826.28  37.053  24.167
1826.78  37.053  24.228
1827.28  37.117  24.197
1827.78  37.053  24.197
1828.28  37.053  24.197
1828.78  37.053  24.197
1829.28  36.989  24.197
1829.78  37.117  24.197
1830.28  37.181  24.197
1830.78  37.053  24.197
1831.28  37.053  24.197
1831.78  37.053  24.197
1832.28  37.053  24.197
1832.78  37.053  24.197
1833.28  37.053  24.136
1833.78  37.053  24.228
1834.28  37.117  24.197
1834.78  37.117  24.167
1835.28  37.053  24.197
1835.78  37.053  24.197
1836.28  37.181  24.197
1836.78  37.245  24.197
1837.28  36.989  24.228
1837.78  37.053  24.197
1838.28  37.053  24.197
1838.78  37.117  24.228
1839.28  37.117  24.197
1839.78  37.053  24.228
1840.28  37.053  24.197
1840.78  37.245  24.167
1841.28  37.053  24.228
1841.78  36.989  24.167
1842.28  37.053  24.167
1842.78  37.117  24.197
1843.28  37.117  24.228
1843.78  37.053  24.228
1844.28  36.989  24.197
1844.78  37.117  24.228
1845.28  37.053  24.197
1845.78  37.053  24.197
1846.28  37.053  24.197
1846.78  37.053  24.197
1847.28  37.117  24.197
1847.78  37.181  24.197
1848.28  37.117  24.228
1848.78  37.053  24.197
1849.28  37.117  24.167
1849.79  37.117  24.228
1850.29  37.117  24.228
1850.79  37.117  24.228
1851.29  37.117  24.197
1851.79  37.181  24.197
1852.29  37.053  24.197
1852.79  37.117  24.228
1853.29  37.117  24.197
1853.79  37.053  24.228
1854.29  37.181  24.228
1854.79  37.117  24.197
1855.29  37.117  24.167
1855.79  37.117  24.228
1856.29  37.117  24.228
1856.79  37.117  24.197
1857.29  37.117  24.167
1857.79  37.181  24.197
1858.29  37.053  24.167
1858.79  37.117  24.167
1859.29  37.117  24.197
1859.79  37.117  24.197
1860.29  37.117  24.228
1860.79  37.117  24.228
1861.29  37.181  24.197
1861.79  37.181  24.197
1862.29  37.117  24.197
1862.79  37.117  24.167
1863.29  37.181  24.197
1863.79  37.181  24.197
1864.29  37.117  24.197
1864.79  37.181  24.197
1865.29  37.117  24.197
1865.79  37.117  24.228
1866.29  37.117  24.228
1866.79  37.053  24.228
1867.29  37.117  24.197
1867.79  37.053  24.197
1868.29  37.117  24.259
1868.79  37.053  24.228
1869.29  37.117  24.197
1869.79  37.053  24.197
1870.29  37.117  24.228
1870.79  37.117  24.228
1871.29  37.117  24.197
1871.79  37.117  24.197
1872.29  37.053  24.197
1872.79  37.117  24.290
1873.29  37.117  24.228
1873.79  37.245  24.197
1874.29  37.117  24.197
1874.79  37.117  24.197
1875.29  37.117  24.228
1875.79  37.117  24.228
1876.29  37.117  24.228
1876.79  36.989  24.197
1877.29  37.117  24.167
1877.79  37.117  24.197
1878.29  37.117  24.197
1878.79  37.117  24.228
1879.29  37.117  24.197
1879.79  37.181  24.228
1880.29  37.053  24.228
1880.79  37.117  24.228
1881.29  37.117  24.228
1881.79  37.117  24.228
1882.29  37.117  24.197
1882.79  37.117  24.197
1883.29  37.117  24.228
1883.79  37.117  24.228
1884.29  36.989  24.228
1884.79  37.117  24.167
1885.29  37.053  24.197
1885.79  37.053  24.228
1886.29  37.053  24.197
1886.79  37.181  24.197
1887.29  37.181  24.197
1887.79  37.117  24.259
1888.29  37.053  24.228
1888.79  37.181  24.228
1889.29  37.117  24.228
1889.79  37.117  24.197
1890.29  37.181  24.197
1890.79  37.117  24.167
1891.29  37.117  24.259
1891.79  37.117  24.228
1892.29  37.309  24.228
1892.79  37.117  24.228
1893.29  37.117  24.228
1893.79  37.053  24.228
1894.29  37.117  24.228
1894.79  37.053  24.197
1895.29  37.117  24.228
1895.79  37.181  24.197
1896.29  37.117  24.228
1896.79  37.053  24.228
1897.29  37.053  24.197
1897.79  37.117  24.259
1898.29  37.117  24.228
1898.79  37.117  24.197
1899.29  37.053  24.228
1899.79  37.181  24.197
1900.29  37.117  24.228
1900.79  37.117  24.228
1901.29  37.117  24.197
1901.79  37.181  24.228
1902.29  37.181  24.228
1902.79  37.117  24.228
1903.29  37.245  24.197
1903.79  37.181  24.197
1904.29  37.117  24.197
1904.79  37.117  24.197
1905.29  37.181  24.259
1905.79  37.117  24.197
1906.29  37.117  24.259
1906.79  37.117  24.197
1907.29  37.053  24.228
1907.79  37.053  24.197
1908.29  37.181  24.197
1908.79  37.117  24.228
1909.29  37.181  24.228
1909.79  37.117  24.228
1910.29  37.181  24.197
1910.79  37.181  24.228
1911.29  37.117  24.228
1911.79  37.181  24.228
1912.29  37.181  24.228
1912.79  37.117  24.197
1913.29  37.053  24.197
1913.79  37.181  24.197
1914.29  37.181  24.197
1914.79  37.117  24.197
1915.29  37.053  24.197
1915.79  37.053  24.228
1916.29  37.117  24.197
1916.79  37.181  24.197
1917.29  37.117  24.228
1917.79  37.181  24.228
1918.29  37.117  24.228
1918.79  37.181  24.228
1919.29  37.117  24.228
1919.79  37.181  24.228
1920.29  37.181  24.197
1920.79  37.181  24.228
1921.29  37.181  24.228
1921.79  37.181  24.197
1922.29  37.181  24.228
1922.79  37.117  24.228
1923.29  37.117  24.228
1923.79  37.053  24.197
1924.29  37.117  24.259
1924.79  37.245  24.197
1925.29  37.309  24.228
1925.79  37.117  24.228
1926.29  37.245  24.197
1926.79  37.309  24.197
1927.29  37.117  24.259
1927.79  37.181  24.197
1928.29  37.245  24.228
1928.79  37.245  24.228
1929.29  37.181  24.228
1929.79  37.181  24.228
1930.29  37.181  24.167
1930.79  37.181  24.197
1931.29  37.245  24.228
1931.79  37.245  24.228
1932.29  37.181  24.197
1932.79  37.181  24.228
1933.29  37.181  24.259
1933.79  37.181  24.197
1934.29  37.181  24.228
1934.79  37.181  24.259
1935.29  37.181  24.228
1935.79  37.181  24.228
1936.29  37.117  24.228
1936.79  37.245  24.228
1937.29  37.117  24.228
1937.79  37.181  24.228
1938.29  37.117  24.228
1938.79  37.181  24.228
1939.29  37.181  24.228
1939.79  37.117  24.197
1940.29  37.181  24.228
1940.79  37.181  24.228
1941.29  37.053  24.228
1941.79  37.245  24.228
1942.29  37.117  24.197
1942.79  37.181  24.228
1943.29  37.181  24.197
1943.79  37.181  24.228
1944.29  37.245  24.228
1944.79  37.181  24.228
1945.29  37.181  24.228
1945.79  37.245  24.197
1946.29  37.181  24.228
1946.79  37.117  24.228
1947.29  37.245  24.228
1947.79  37.181  24.228
1948.29  37.181  24.259
1948.79  37.117  24.259
1949.29  37.181  24.228
1949.79  37.245  24.228
1950.29  37.181  24.228
1950.79  37.181  24.228
1951.29  37.245  24.228
1951.79  37.181  24.259
1952.29  37.245  24.228
1952.79  37.117  24.228
1953.29  37.245  24.259
1953.79  37.181  24.228
1954.29  37.181  24.228
1954.79  37.181  24.259
1955.29  37.245  24.197
1955.79  37.181  24.228
1956.29  37.309  24.228
1956.79  37.181  24.228
1957.29  37.181  24.228
1957.79  37.181  24.228
1958.29  37.245  24.197
1958.79  37.181  24.228
1959.29  37.245  24.228
1959.79  37.181  24.228
1960.29  37.181  24.228
1960.79  37.245  24.228
1961.29  37.245  24.259
1961.79  37.181  24.228
1962.29  37.373  24.228
1962.79  37.181  24.228
1963.30  37.181  24.228
1963.80  37.309  24.228
1964.30  37.245  24.259
1964.80  37.245  24.167
1965.30  37.181  24.228
1965.80  37.245  24.259
1966.30  37.181  24.259
1966.80  37.245  24.197
1967.30  37.245  24.228
1967.80  37.245  24.259
1968.30  37.181  24.259
1968.80  37.117  24.228
1969.30  37.181  24.228
1969.80  37.181  24.228
1970.30  37.245  24.228
1970.80  37.245  24.259
1971.30  37.117  24.259
1971.80  37.309  24.228
1972.30  37.245  24.228
1972.80  37.245  24.228
1973.30  37.181  24.228
1973.80  37.309  24.228
1974.30  37.245  24.228
1974.80  37.245  24.228
1975.30  37.245  24.228
1975.80  37.181  24.259
1976.30  37.245  24.228
1976.80  37.245  24.259
1977.30  37.245  24.228
1977.80  37.245  24.228
1978.30  37.181  24.259
1978.80  37.181  24.259
1979.30  37.245  24.228
1979.80  37.245  24.228
1980.30  37.245  24.259
1980.80  37.245  24.259
1981.30  37.181  24.197
1981.80  37.245  24.259
1982.30  37.245  24.228
1982.80  37.245  24.259
1983.30  37.245  24.197
1983.80  37.245  24.259
1984.30  37.245  24.228
1984.80  37.245  24.259
1985.30  37.245  24.259
1985.80  37.309  24.228
1986.30  37.181  24.259
1986.80  37.245  24.259
1987.30  37.245  24.259
1987.80  37.181  24.197
1988.30  37.245  24.290
1988.80  37.245  24.228
1989.30  37.245  24.259
1989.80  37.245  24.259
1990.30  37.309  24.228
1990.80  37.245  24.228
1991.30  37.117  24.228
1991.80  37.309  24.228
1992.30  37.245  24.228
1992.80  37.181  24.228
1993.30  37.245  24.228
1993.80  37.181  24.228
1994.30  37.245  24.228
1994.80  37.181  24.228
1995.30  37.181  24.197
1995.80  37.181  24.259
1996.30  37.245  24.228
1996.80  37.245  24.228
1997.30  37.309  24.228
1997.80  37.245  24.228
1998.30  37.309  24.228
1998.80  37.181  24.259
1999.30  37.181  24.197
1999.80  37.245  24.259
2000.30  37.309  24.228
2000.80  37.181  24.228
2001.30  37.309  24.259
2001.80  37.245  24.228
2002.30  37.245  24.259
2002.80  37.309  24.259
2003.30  37.309  24.259
2003.80  37.181  24.228
2004.30  37.245  24.259
2004.80  37.245  24.259
2005.30  37.309  24.259
2005.80  37.181  24.228
2006.30  37.245  24.228
2006.80  37.245  24.259
2007.30  37.181  24.259
2007.80  37.181  24.228
2008.30  37.245  24.228
2008.80  37.245  24.228
2009.30  37.245  24.197
2009.80  37.245  24.259
2010.30  37.245  24.228
2010.80  37.309  24.259
2011.30  37.245  24.228
2011.80  37.245  24.228
2012.30  37.117  24.290
2012.80  37.245  24.228
2013.30  37.245  24.259
2013.80  37.245  24.259
2014.30  37.245  24.259
2014.80  37.117  24.228
2015.30  37.245  24.228
2015.80  37.245  24.259
2016.30  37.309  24.259
2016.80  37.181  24.228
2017.30  37.181  24.228
2017.80  37.245  24.228
2018.30  37.245  24.228
2018.80  37.309  24.290
2019.30  37.245  24.259
2019.80  37.181  24.228
2020.30  37.245  24.259
2020.80  37.245  24.228
2021.30  37.309  24.259
2021.80  37.181  24.228
2022.30  37.181  24.290
2022.80  37.181  24.259
2023.30  37.245  24.259
2023.80  37.373  24.259
2024.30  37.309  24.259
2024.80  37.437  24.259
2025.30  37.181  24.259
2025.80  37.181  24.197
2026.30  37.309  24.259
2026.80  37.309  24.259
2027.30  37.309  24.259
2027.80  37.181  24.228
2028.30  37.245  24.228
2028.80  37.181  24.197
2029.30  37.309  24.228
2029.80  37.245  24.259
2030.30  37.245  24.290
2030.80  37.309  24.228
2031.30  37.181  24.228
2031.80  37.309  24.228
2032.30  37.245  24.228
2032.80  37.245  24.259
2033.30  37.245  24.228
2033.80  37.245  24.259
2034.30  37.309  24.259
2034.80  37.309  24.259
2035.30  37.245  24.259
2035.80  37.245  24.290
2036.30  37.373  24.290
2036.80  37.245  24.290
2037.30  37.245  24.259
2037.80  37.309  24.259
2038.30  37.309  24.259
2038.80  37.309  24.259
2039.30  37.245  24.290
2039.80  37.245  24.259
2040.30  37.309  24.259
2040.80  37.181  24.228
2041.30  37.245  24.228
2041.80  37.245  24.228
2042.30  37.245  24.228
2042.80  37.245  24.259
2043.30  37.245  24.259
2043.80  37.437  24.259
2044.30  37.309  24.228
2044.80  37.309  24.259
2045.30  37.245  24.228
2045.80  37.309  24.228
2046.30  37.309  24.290
2046.80  37.181  24.259
2047.30  37.309  24.259
2047.80  37.309  24.259
2048.30  37.309  24.290
2048.80  37.309  24.259
2049.30  37.309  24.259
2049.80  37.245  24.259
2050.30  37.309  24.259
2050.80  37.245  24.228
2051.30  37.245  24.197
2051.80  37.309  24.259
2052.30  37.309  24.259
2052.80  37.309  24.228
2053.30  37.245  24.228
2053.80  37.245  24.259
2054.30  37.309  24.259
2054.80  37.309  24.259
2055.30  37.181  24.259
2055.80  37.309  24.228
2056.30  37.309  24.259
2056.80  37.373  24.259
2057.30  37.309  24.259
2057.80  37.309  24.259
2058.30  37.245  24.259
2058.80  37.245  24.259
2059.30  37.245  24.259
2059.80  37.309  24.228
2060.30  37.309  24.259
2060.80  37.245  24.259
2061.30  37.309  24.228
2061.80  37.373  24.259
2062.30  37.309  24.290
2062.80  37.373  24.228
2063.30  37.245  24.290
2063.80  37.245  24.167
2064.30  37.309  24.259
2064.80  37.309  24.228
2065.30  37.309  24.259
2065.80  37.245  24.259
2066.30  37.501  24.228
2066.80  37.309  24.321
2067.30  37.309  24.228
2067.80  37.309  24.321
2068.30  37.373  24.259
2068.80  37.245  24.228
2069.30  37.309  24.228
2069.80  37.309  24.290
2070.30  37.245  24.290
2070.80  37.309  24.290
2071.30  37.245  24.259
2071.80  37.373  24.228
2072.30  37.309  24.259
2072.80  37.309  24.259
2073.30  37.309  24.290
2073.80  37.309  24.259
2074.30  37.373  24.259
2074.80  37.309  24.228
2075.30  37.245  24.259
2075.80  37.309  24.228
2076.30  37.245  24.259
2076.80  37.245  24.290
2077.30  37.373  24.259
2077.80  37.309  24.290
2078.30  37.309  24.259
2078.80  37.309  24.259
2079.30  37.309  24.259
2079.80  37.245  24.228
2080.30  37.373  24.290
2080.80  37.309  24.259
2081.30  37.373  24.259
2081.80  37.437  24.259
2082.30  37.309  24.259
2082.80  37.245  24.290
2083.30  37.309  24.228
2083.80  37.309  24.259
2084.30  37.245  24.259
2084.80  37.309  24.290
2085.30  37.245  24.259
2085.80  37.373  24.290
2086.30  37.245  24.197
2086.80  37.373  24.259
2087.31  37.309  24.259
2087.81  37.245  24.290
2088.31  37.309  24.259
2088.81  37.245  24.259
2089.31  37.309  24.259
2089.81  37.373  24.259
2090.31  37.245  24.259
2090.81  37.245  24.259
2091.31  37.309  24.290
2091.81  37.309  24.228
2092.31  37.309  24.259
2092.81  37.309  24.259
2093.31  37.309  24.228
2093.81  37.309  24.259
2094.31  37.373  24.290
2094.81  37.309  24.259
2095.31  37.373  24.259
2095.81  37.309  24.259
2096.31  37.373  24.259
2096.81  37.245  24.259
2097.31  37.373  24.228
2097.81  37.309  24.290
2098.31  37.309  24.259
2098.81  37.437  24.259
2099.31  37.309  24.259
2099.81  37.373  24.259
2100.31  37.245  24.259
2100.81  37.373  24.259
2101.31  37.309  24.259
2101.81  37.309  24.290
2102.31  37.309  24.259
2102.81  37.245  24.259
2103.31  37.373  24.290
2103.81  37.245  24.259
2104.31  37.373  24.259
2104.81  37.309  24.259
2105.31  37.309  24.259
2105.81  37.245  24.259
2106.31  37.245  24.259
2106.81  37.309  24.259
2107.31  37.309  24.259
2107.81  37.245  24.259
2108.31  37.309  24.290
2108.81  37.309  24.290
2109.31  37.373  24.259
2109.81  37.309  24.259
2110.31  37.373  24.290
2110.81  37.309  24.259
2111.31  37.309  24.259
2111.81  37.373  24.259
2112.31  37.309  24.259
2112.81  37.309  24.259
2113.31  37.181  24.197
2113.81  37.373  24.259
2114.31  37.373  24.259
2114.81  37.309  24.259
2115.31  37.309  24.321
2115.81  37.245  24.259
2116.31  37.309  24.259
2116.81  37.245  24.259
2117.31  37.309  24.290
2117.81  37.309  24.259
2118.31  37.309  24.290
2118.81  37.373  24.259
2119.31  37.373  24.228
2119.81  37.373  24.290
2120.31  37.437  24.259
2120.81  37.309  24.259
2121.31  37.373  24.259
2121.81  37.309  24.259
2122.31  37.373  24.259
2122.81  37.309  24.259
2123.31  37.437  24.259
2123.81  37.373  24.259
2124.31  37.373  24.290
2124.81  37.309  24.290
2125.31  37.309  24.321
2125.81  37.373  24.228
2126.31  37.309  24.290
2126.81  37.309  24.228
2127.31  37.373  24.259
2127.81  37.309  24.290
2128.31  37.309  24.290
2128.81  37.309  24.259
2129.31  37.373  24.259
2129.81  37.309  24.290
2130.31  37.309  24.259
2130.81  37.373  24.259
2131.31  37.309  24.290
2131.81  37.373  24.290
2132.31  37.373  24.290
2132.81  37.373  24.290
2133.31  37.437  24.290
2133.81  37.373  24.259
2134.31  37.501  24.228
2134.81  37.309  24.259
2135.31  37.309  24.259
2135.81  37.309  24.290
2136.31  37.309  24.290
2136.81  37.309  24.259
2137.31  37.309  24.259
2137.81  37.373  24.290
2138.31  37.309  24.259
2138.81  37.437  24.259
2139.31  37.373  24.259
2139.81  37.309  24.351
2140.31  37.437  24.290
2140.81  37.309  24.290
2141.31  37.373  24.259
2141.81  37.373  24.290
2142.31  37.373  24.259
2142.81  37.373  24.321
2143.31  37.309  24.259
2143.81  37.373  24.290
2144.31  37.309  24.290
2144.81  37.373  24.259
2145.31  37.309  24.290
2145.81  37.373  24.259
2146.31  37.373  24.259
2146.81  37.373  24.259
2147.31  37.309  24.290
2147.81  37.309  24.228
2148.31  37.373  24.290
2148.81  37.309  24.321
2149.31  37.373  24.290
2149.81  37.501  24.290
2150.31  37.309  24.351
2150.81  37.373  24.290
2151.31  37.309  24.259
2151.81  37.437  24.259
2152.31  37.245  24.259
2152.81  37.309  24.259
2153.31  37.373  24.290
2153.81  37.437  24.290
2154.31  37.309  24.290
2154.81  37.373  24.290
2155.31  37.373  24.290
2155.81  37.373  24.290
2156.31  37.501  24.259
2156.81  37.437  24.290
2157.31  37.437  24.290
2157.81  37.373  24.197
2158.31  37.437  24.259
2158.81  37.373  24.259
2159.31  37.373  24.259
2159.81  37.373  24.290
2160.31  37.373  24.290
2160.81  37.373  24.259
2161.31  37.373  24.259
2161.81  37.373  24.321
2162.31  37.309  24.259
2162.81  37.373  24.290
2163.31  37.437  24.228
2163.81  37.373  24.290
2164.31  37.373  24.290
2164.81  37.373  24.321
2165.31  37.437  24.259
2165.81  37.309  24.259
2166.31  37.373  24.259
2166.81  37.373  24.290
2167.31  37.373  24.259
2167.81  37.309  24.259
2168.31  37.309  24.259
2168.81  37.309  24.228
2169.31  37.309  24.259
2169.81  37.373  24.259
2170.31  37.373  24.228
2170.81  37.309  24.259
2171.31  37.373  24.259
2171.81  37.501  24.290
2172.31  37.373  24.290
2172.81  37.373  24.259
2173.31  37.309  24.290
2173.81  37.373  24.290
2174.31  37.373  24.290
2174.81  37.437  24.321
2175.31  37.373  24.259
2175.81  37.437  24.259
2176.31  37.373  24.290
2176.81  37.437  24.290
2177.31  37.373  24.290
2177.81  37.373  24.290
2178.31  37.309  24.259
2178.81  37.437  24.259
2179.31  37.373  24.290
2179.81  37.501  24.259
2180.31  37.373  24.290
2180.81  37.437  24.290
2181.31  37.373  24.321
2181.81  37.373  24.290
2182.31  37.437  24.228
2182.81  37.373  24.259
2183.31  37.437  24.290
2183.81  37.437  24.259
2184.31  37.373  24.290
2184.81  37.373  24.351
2185.31  37.373  24.290
2185.81  37.373  24.290
2186.31  37.437  24.259
2186.81  37.309  24.290
2187.31  37.437  24.290
2187.81  37.373  24.290
2188.31  37.437  24.290
2188.81  37.437  24.259
2189.32  37.373  24.290
2189.82  37.309  24.290
2190.32  37.373  24.290
2190.82  37.501  24.290
2191.32  37.437  24.259
2191.82  37.501  24.321
2192.32  37.373  24.290
2192.82  37.373  24.259
2193.32  37.437  24.290
2193.82  37.373  24.290
2194.32  37.373  24.290
2194.82  37.373  24.290
2195.32  37.373  24.321
2195.82  37.373  24.290
2196.32  37.373  24.290
2196.82  37.501  24.290
2197.32  37.373  24.290
2197.82  37.437  24.259
2198.32  37.437  24.290
2198.82  37.373  24.290
2199.32  37.437  24.290
2199.82  37.373  24.290
2200.32  37.373  24.290
2200.82  37.437  24.290
2201.32  37.309  24.290
2201.82  37.373  24.290
2202.32  37.309  24.321
2202.82  37.373  24.290
2203.32  37.437  24.259
2203.82  37.437  24.290
2204.32  37.373  24.259
2204.82  37.373  24.259
2205.32  37.309  24.290
2205.82  37.437  24.259
2206.32  37.437  24.290
2206.82  37.373  24.290
2207.32  37.437  24.290
2207.82  37.373  24.290
2208.32  37.373  24.290
2208.82  37.373  24.290
2209.32  37.373  24.290
2209.82  37.373  24.290
2210.32  37.373  24.290
2210.82  37.437  24.259
2211.32  37.373  24.290
2211.82  37.437  24.259
2212.32  37.501  24.290
2212.82  37.373  24.290
2213.32  37.565  24.321
2213.82  37.373  24.290
2214.32  37.373  24.259
2214.82  37.309  24.259
2215.32  37.373  24.321
2215.82  37.437  24.290
2216.32  37.501  24.290
2216.82  37.373  24.259
2217.32  37.373  24.290
2217.82  37.373  24.259
2218.32  37.437  24.290
2218.82  37.437  24.321
2219.32  37.437  24.259
2219.82  37.373  24.290
2220.32  37.373  24.321
2220.82  37.373  24.290
2221.32  37.373  24.321
2221.82  37.501  24.290
2222.32  37.437  24.321
2222.82  37.437  24.351
2223.32  37.437  24.259
2223.82  37.373  24.290
2224.32  37.373  24.321
2224.82  37.437  24.290
2225.32  37.437  24.290
2225.82  37.373  24.321
2226.32  37.437  24.321
2226.82  37.437  24.259
2227.32  37.437  24.290
2227.82  37.373  24.290
2228.32  37.437  24.259
2228.82  37.437  24.290
2229.32  37.373  24.259
2229.82  37.437  24.290
2230.32  37.437  24.290
2230.82  37.437  24.290
2231.32  37.437  24.259
2231.82  37.501  24.290
2232.32  37.501  24.259
2232.82  37.437  24.290
2233.32  37.373  24.259
2233.82  37.501  24.228
2234.32  37.373  24.290
2234.82  37.309  24.290
2235.32  37.309  24.321
2235.82  37.437  24.290
2236.32  37.437  24.290
2236.82  37.565  24.290
2237.32  37.373  24.228
2237.82  37.437  24.290
2238.32  37.437  24.290
2238.82  37.437  24.290
2239.32  37.437  24.321
2239.82  37.437  24.290
2240.32  37.309  24.290
2240.82  37.629  24.290
2241.32  37.437  24.290
2241.82  37.437  24.290
2242.32  37.437  24.259
2242.82  37.373  24.290
2243.32  37.373  24.321
2243.82  37.437  24.259
2244.32  37.373  24.321
2244.82  37.565  24.290
2245.32  37.437  24.290
2245.82  37.437  24.259
2246.32  37.437  24.290
2246.82  37.437  24.321
2247.32  37.373  24.259
2247.82  37.437  24.321
2248.32  37.437  24.290
2248.82  37.437  24.351
2249.32  37.501  24.259
2249.82  37.373  24.290
2250.32  37.437  24.290
2250.82  37.437  24.290
2251.32  37.373  24.259
2251.82  37.437  24.351
2252.32  37.501  24.290
2252.82  37.437  24.290
2253.32  37.501  24.290
2253.82  37.437  24.290
2254.32  37.437  24.290
2254.82  37.437  24.290
2255.32  37.501  24.259
2255.82  37.501  24.290
2256.32  37.565  24.321
2256.82  37.501  24.290
2257.32  37.437  24.290
2257.82  37.437  24.321
2258.32  37.437  24.290
2258.82  37.373  24.290
2259.32  37.437  24.290
2259.82  37.437  24.290
2260.32  37.437  24.290
2260.82  37.437  24.290
2261.32  37.437  24.290
2261.82  37.373  24.290
2262.32  37.437  24.259
2262.82  37.437  24.321
2263.32  37.373  24.321
2263.82  37.373  24.290
2264.32  37.373  24.290
2264.82  37.501  24.321
2265.32  37.501  24.259
2265.82  37.501  24.321
2266.32  37.501  24.290
2266.82  37.437  24.290
2267.32  37.565  24.290
2267.82  37.309  24.290
2268.32  37.437  24.290
2268.82  37.437  24.321
2269.32  37.437  24.321
2269.82  37.437  24.321
2270.32  37.309  24.290
2270.82  37.373  24.290
2271.32  37.437  24.290
2271.82  37.373  24.290
2272.32  37.437  24.321
2272.82  37.501  24.321
2273.32  37.501  24.321
2273.82  37.437  24.321
2274.32  37.501  24.290
2274.82  37.437  24.259
2275.32  37.437  24.321
2275.82  37.501  24.290
2276.32  37.437  24.290
2276.82  37.373  24.321
2277.32  37.501  24.290
2277.82  37.373  24.321
2278.32  37.437  24.321
2278.82  37.437  24.259
2279.32  37.437  24.321
2279.82  37.437  24.290
2280.32  37.373  24.321
2280.82  37.501  24.259
2281.32  37.373  24.290
2281.82  37.501  24.321
2282.32  37.373  24.290
2282.82  37.437  24.290
2283.32  37.437  24.321
2283.82  37.437  24.321
2284.32  37.501  24.259
2284.82  37.501  24.290
2285.32  37.501  24.321
2285.82  37.501  24.351
2286.32  37.565  24.321
2286.82  37.565  24.321
2287.32  37.437  24.321
2287.82  37.437  24.290
2288.32  37.437  24.290
2288.82  37.501  24.290
2289.32  37.437  24.321
2289.82  37.437  24.321
2290.32  37.437  24.290
2290.82  37.373  24.290
2291.32  37.501  24.290
2291.82  37.565  24.321
2292.32  37.437  24.351
2292.82  37.437  24.321
2293.32  37.565  24.290
2293.82  37.501  24.290
2294.32  37.501  24.290
2294.82  37.437  24.321
2295.32  37.501  24.321
2295.82  37.437  24.290
2296.32  37.501  24.290
2296.82  37.501  24.290
2297.32  37.437  24.290
2297.82  37.437  24.290
2298.32  37.437  24.290
2298.82  37.501  24.321
2299.32  37.437  24.321
2299.82  37.437  24.321
2300.32  37.501  24.321
2300.82  37.437  24.290
2301.32  37.501  24.290
2301.82  37.437  24.321
2302.32  37.501  24.290
2302.82  37.437  24.259
2303.32  37.437  24.290
2303.82  37.565  24.290
2304.32  37.501  24.321
2304.82  37.501  24.351
2305.32  37.437  24.290
2305.82  37.437  24.259
2306.32  37.437  24.321
2306.82  37.501  24.351
2307.32  37.437  24.321
2307.82  37.501  24.259
2308.32  37.565  24.290
2308.82  37.565  24.351
2309.32  37.565  24.321
2309.82  37.501  24.290
2310.32  37.437  24.321
2310.82  37.501  24.290
2311.32  37.437  24.290
2311.82  37.501  24.290
2312.32  37.373  24.290
2312.82  37.501  24.382
2313.33  37.437  24.321
2313.83  37.373  24.321
2314.33  37.437  24.290
2314.83  37.501  24.259
2315.33  37.373  24.321
2315.83  37.437  24.290
2316.33  37.501  24.259
2316.83  37.501  24.259
2317.33  37.437  24.290
2317.83  37.501  24.290
2318.33  37.373  24.321
2318.83  37.437  24.321
2319.33  37.501  24.290
2319.83  37.501  24.321
2320.33  37.373  24.321
2320.83  37.437  24.321
2321.33  37.501  24.259
2321.83  37.501  24.321
2322.33  37.373  24.290
2322.83  37.501  24.351
2323.33  37.501  24.321
2323.83  37.565  24.321
2324.33  37.565  24.290
2324.83  37.501  24.321
2325.33  37.565  24.290
2325.83  37.501  24.321
2326.33  37.501  24.321
2326.83  37.501  24.290
2327.33  37.565  24.290
2327.83  37.565  24.351
2328.33  37.565  24.321
2328.83  37.437  24.351
2329.33  37.501  24.321
2329.83  37.501  24.290
2330.33  37.501  24.321
2330.83  37.565  24.351
2331.33  37.629  24.382
2331.83  37.501  24.351
2332.33  37.501  24.321
2332.83  37.437  24.351
2333.33  37.501  24.321
2333.83  37.501  24.321
2334.33  37.501  24.321
2334.83  37.501  24.290
2335.33  37.501  24.259
2335.83  37.501  24.321
2336.33  37.565  24.290
2336.83  37.437  24.321
2337.33  37.437  24.259
2337.83  37.501  24.290
2338.33  37.501  24.321
2338.83  37.501  24.321
2339.33  37.437  24.321
2339.83  37.501  24.321
2340.33  37.501  24.321
2340.83  37.501  24.321
2341.33  37.437  24.290
2341.83  37.501  24.259
2342.33  37.501  24.290
2342.83  37.501  24.290
2343.33  37.501  24.321
2343.83  37.565  24.321
2344.33  37.437  24.321
2344.83  37.501  24.290
2345.33  37.437  24.321
2345.83  37.501  24.321
2346.33  37.501  24.290
2346.83  37.501  24.321
2347.33  37.501  24.321
2347.83  37.629  24.321
2348.33  37.501  24.290
2348.83  37.501  24.321
2349.33  37.437  24.321
2349.83  37.501  24.290
2350.33  37.501  24.290
2350.83  37.437  24.321
2351.33  37.501  24.321
2351.83  37.501  24.321
2352.33  37.501  24.290
2352.83  37.501  24.321
2353.33  37.501  24.290
2353.83  37.501  24.290
2354.33  37.501  24.321
2354.83  37.501  24.321
2355.33  37.501  24.321
2355.83  37.501  24.321
2356.33  37.437  24.290
2356.83  37.629  24.321
2357.33  37.501  24.321
2357.83  37.501  24.321
2358.33  37.501  24.321
2358.83  37.565  24.351
2359.33  37.565  24.321
2359.83  37.565  24.290
2360.33  37.629  24.321
2360.83  37.565  24.321
2361.33  37.501  24.321
2361.83  37.501  24.351
2362.33  37.501  24.321
2362.83  37.501  24.321
2363.33  37.437  24.321
2363.83  37.437  24.321
2364.33  37.501  24.321
2364.83  37.501  24.321
2365.33  37.501  24.321
2365.83  37.565  24.290
2366.33  37.565  24.321
2366.83  37.565  24.321
2367.33  37.501  24.259
2367.83  37.501  24.290
2368.33  37.565  24.351
2368.83  37.501  24.321
2369.33  37.565  24.290
2369.83  37.437  24.321
2370.33  37.565  24.321
2370.83  37.565  24.382
2371.33  37.437  24.321
2371.83  37.501  24.228
2372.33  37.501  24.321
2372.83  37.501  24.321
2373.33  37.373  24.321
2373.83  37.501  24.321
2374.33  37.565  24.321
2374.83  37.565  24.321
2375.33  37.437  24.321
2375.83  37.565  24.321
2376.33  37.501  24.259
2376.83  37.565  24.290
2377.33  37.629  24.321
2377.83  37.501  24.321
2378.33  37.501  24.290
2378.83  37.629  24.290
2379.33  37.501  24.351
2379.83  37.565  24.321
2380.33  37.501  24.290
2380.83  37.565  24.321
2381.33  37.565  24.321
2381.83  37.501  24.321
2382.33  37.501  24.351
2382.83  37.437  24.351
2383.33  37.501  24.321
2383.83  37.565  24.351
2384.33  37.501  24.321
2384.83  37.565  24.321
2385.33  37.501  24.321
2385.83  37.565  24.321
2386.33  37.501  24.321
2386.83  37.501  24.321
2387.33  37.565  24.321
2387.83  37.501  24.321
2388.33  37.501  24.321
2388.83  37.629  24.321
2389.33  37.501  24.321
2389.83  37.565  24.351
2390.33  37.501  24.290
2390.83  37.373  24.321
2391.33  37.565  24.351
2391.83  37.501  24.321
2392.33  37.565  24.321
2392.83  37.565  24.321
2393.33  37.565  24.259
2393.83  37.501  24.321
2394.33  37.565  24.321
2394.83  37.501  24.290
2395.33  37.501  24.290
2395.83  37.565  24.351
2396.33  37.437  24.290
2396.83  37.565  24.321
2397.33  37.501  24.351
2397.83  37.501  24.290
2398.33  37.501  24.321
2398.83  37.565  24.321
2399.33  37.501  24.321
2399.83  37.501  24.290
2400.33  37.501  24.321
2400.83  37.501  24.321
2401.33  37.565  24.321
2401.83  37.565  24.321
2402.33  37.501  24.321
2402.83  37.501  24.321
2403.33  37.501  24.321
2403.83  37.565  24.321
2404.33  37.501  24.321
2404.83  37.501  24.321
2405.33  37.501  24.321
2405.83  37.501  24.351
2406.33  37.501  24.351
2406.83  37.565  24.321
2407.33  37.629  24.321
2407.83  37.501  24.321
2408.33  37.693  24.321
2408.83  37.501  24.321
2409.33  37.565  24.321
2409.83  37.629  24.321
2410.33  37.565  24.321
2410.83  37.501  24.290
2411.33  37.565  24.290
2411.83  37.565  24.321
2412.33  37.565  24.351
2412.83  37.565  24.321
2413.33  37.629  24.321
2413.83  37.501  24.321
2414.33  37.501  24.321
2414.83  37.565  24.321
2415.33  37.501  24.290
2415.84  37.565  24.321
2416.34  37.501  24.321
2416.84  37.565  24.290
2417.34  37.565  24.321
2417.84  37.565  24.321
2418.34  37.501  24.321
2418.84  37.629  24.351
2419.34  37.629  24.321
2419.84  37.565  24.351
2420.34  37.437  24.321
2420.84  37.501  24.351
2421.34  37.565  24.351
2421.84  37.501  24.321
2422.34  37.565  24.290
2422.84  37.565  24.321
2423.34  37.565  24.351
2423.84  37.565  24.259
2424.34  37.565  24.321
2424.84  37.629  24.321
2425.34  37.629  24.321
2425.84  37.565  24.290
2426.34  37.629  24.321
2426.84  37.501  24.321
2427.34  37.565  24.321
2427.84  37.565  24.351
2428.34  37.565  24.413
2428.84  37.501  24.321
2429.34  37.565  24.321
2429.84  37.629  24.321
2430.34  37.565  24.382
2430.84  37.629  24.290
2431.34  37.501  24.382
2431.84  37.629  24.321
2432.34  37.501  24.321
2432.84  37.565  24.382
2433.34  37.565  24.351
2433.84  37.565  24.351
2434.34  37.565  24.321
2434.84  37.565  24.351
2435.34  37.629  24.321
2435.84  37.565  24.321
2436.34  37.565  24.351
2436.84  37.565  24.382
2437.34  37.565  24.321
2437.84  37.501  24.321
2438.34  37.565  24.382
2438.84  37.565  24.321
2439.34  37.629  24.321
2439.84  37.565  24.321
2440.34  37.565  24.351
2440.84  37.501  24.351
2441.34  37.565  24.290
2441.84  37.437  24.321
2442.34  37.565  24.351
2442.84  37.757  24.321
2443.34  37.565  24.321
2443.84  37.629  24.321
2444.34  37.565  24.321
2444.84  37.501  24.351
2445.34  37.565  24.351
2445.84  37.629  24.321
2446.34  37.501  24.321
2446.84  37.565  24.321
2447.34  37.501  24.321
2447.84  37.565  24.351
2448.34  37.629  24.290
2448.84  37.629  24.351
2449.34  37.565  24.321
2449.84  37.629  24.321
2450.34  37.565  24.321
2450.84  37.565  24.382
2451.34  37.565  24.351
2451.84  37.629  24.321
2452.34  37.565  24.321
2452.84  37.565  24.321
2453.34  37.565  24.321
2453.84  37.629  24.321
2454.34  37.693  24.321
2454.84  37.565  24.351
2455.34  37.629  24.321
2455.84  37.629  24.351
2456.34  37.565  24.321
2456.84  37.565  24.351
2457.34  37.501  24.351
2457.84  37.629  24.351
2458.34  37.565  24.321
2458.84  37.501  24.321
2459.34  37.565  24.351
2459.84  37.565  24.351
2460.34  37.501  24.382
2460.84  37.629  24.321
2461.34  37.501  24.351
2461.84  37.565  24.290
2462.34  37.565  24.351
2462.84  37.629  24.413
2463.34  37.629  24.351
2463.84  37.501  24.351
2464.34  37.565  24.351
2464.84  37.629  24.351
2465.34  37.565  24.290
2465.84  37.629  24.321
2466.34  37.629  24.351
2466.84  37.565  24.351
2467.34  37.565  24.321
2467.84  37.565  24.321
2468.34  37.565  24.290
2468.84  37.565  24.321
2469.34  37.565  24.351
2469.84  37.501  24.321
2470.34  37.629  24.321
2470.84  37.565  24.351
2471.34  37.501  24.290
2471.84  37.629  24.321
2472.34  37.565  24.351
2472.84  37.565  24.321
2473.34  37.565  24.351
2473.84  37.629  24.321
2474.34  37.565  24.382
2474.84  37.565  24.321
2475.34  37.565  24.321
2475.84  37.565  24.321
2476.34  37.501  24.351
2476.84  37.565  24.321
2477.34  37.565  24.351
2477.84  37.565  24.351
2478.34  37.565  24.351
2478.84  37.565  24.351
2479.34  37.629  24.351
2479.84  37.629  24.382
2480.34  37.565  24.351
2480.84  37.501  24.351
2481.34  37.565  24.321
2481.84  37.629  24.290
2482.34  37.629  24.321
2482.84  37.629  24.351
2483.34  37.629  24.351
2483.84  37.565  24.351
2484.34  37.629  24.321
2484.84  37.565  24.382
2485.34  37.629  24.351
2485.84  37.629  24.321
2486.34  37.629  24.321
2486.84  37.693  24.351
2487.34  37.629  24.351
2487.84  37.565  24.321
2488.34  37.629  24.413
2488.84  37.629  24.351
2489.34  37.629  24.382
2489.84  37.693  24.351
2490.34  37.629  24.351
2490.84  37.565  24.351
2491.34  37.629  24.321
2491.84  37.629  24.351
2492.34  37.565  24.351
2492.84  37.693  24.382
2493.34  37.565  24.321
2493.84  37.629  24.351
2494.34  37.629  24.351
2494.84  37.629  24.351
2495.34  37.629  24.351
2495.84  37.629  24.351
2496.34  37.565  24.351
2496.84  37.565  24.351
2497.34  37.629  24.321
2497.84  37.629  24.351
2498.34  37.629  24.351
2498.84  37.629  24.382
2499.34  37.629  24.351
2499.84  37.629  24.351
2500.34  37.693  24.321
2500.84  37.629  24.321
2501.34  37.565  24.351
2501.84  37.629  24.351
2502.34  37.629  24.351
2502.84  37.629  24.321
2503.34  37.565  24.351
2503.84  37.629  24.382
2504.34  37.629  24.290
2504.84  37.629  24.382
2505.34  37.629  24.351
2505.84  37.757  24.321
2506.34  37.565  24.351
2506.84  37.565  24.351
2507.34  37.565  24.321
2507.84  37.629  24.413
2508.34  37.693  24.321
2508.84  37.629  24.351
2509.34  37.565  24.351
2509.84  37.565  24.321
2510.34  37.501  24.351
2510.84  37.629  24.351
2511.34  37.629  24.351
2511.84  37.565  24.321
2512.34  37.629  24.321
2512.84  37.629  24.351
2513.34  37.565  24.351
2513.84  37.821  24.321
2514.34  37.629  24.321
2514.84  37.629  24.382
2515.34  37.629  24.351
2515.84  37.629  24.351
2516.34  37.565  24.351
2516.84  37.629  24.321
2517.34  37.629  24.351
2517.84  37.629  24.321
2518.34  37.629  24.351
2518.84  37.565  24.321
2519.34  37.565  24.321
2519.84  37.629  24.351
2520.34  37.565  24.321
2520.84  37.565  24.351
2521.34  37.565  24.351
2521.84  37.565  24.351
2522.34  37.629  24.290
2522.84  37.629  24.321
2523.34  37.629  24.351
2523.84  37.629  24.321
2524.34  37.693  24.351
2524.84  37.629  24.351
2525.34  37.821  24.351
2525.84  37.629  24.382
2526.34  37.693  24.321
2526.84  37.693  24.351
2527.34  37.629  24.321
2527.84  37.629  24.382
2528.34  37.565  24.382
2528.84  37.693  24.351
2529.34  37.693  24.382
2529.84  37.629  24.351
2530.34  37.629  24.321
2530.84  37.629  24.351
2531.34  37.629  24.382
2531.84  37.565  24.351
2532.34  37.629  24.351
2532.84  37.693  24.321
2533.34  37.629  24.382
2533.84  37.693  24.382
2534.34  37.565  24.351
2534.84  37.757  24.351
2535.34  37.629  24.351
2535.84  37.757  24.321
2536.34  37.629  24.351
2536.84  37.629  24.382
2537.34  37.629  24.321
2537.84  37.629  24.321
2538.34  37.629  24.351
2538.84  37.693  24.351
2539.34  37.629  24.413
2539.85  37.693  24.351
2540.35  37.629  24.351
2540.85  37.629  24.351
2541.35  37.565  24.351
2541.85  37.693  24.321
2542.35  37.757  24.321
2542.85  37.693  24.351
