   2.00  23.069  22.749
   2.50  23.043  22.749
   3.00  23.069  22.780
   3.50  23.069  22.749
   4.00  23.069  22.749
   4.50  23.095  22.811
   5.00  23.095  22.749
   5.50  23.069  22.749
   6.00  23.095  22.780
   6.50  23.095  22.749
   7.00  23.095  22.780
   7.50  23.069  22.780
   8.00  23.069  22.719
   8.50  23.095  22.749
   9.00  23.069  22.749
   9.50  23.069  22.719
  10.00  23.069  22.749
  10.50  23.095  22.780
  11.00  23.043  22.749
  11.50  23.069  22.749
  12.00  23.069  22.780
  12.50  23.095  22.780
  13.00  23.069  22.749
  13.50  23.095  22.780
  14.00  23.121  22.749
  14.50  23.121  22.719
  15.00  23.095  22.780
  15.50  23.095  22.749
  16.00  23.069  22.780
  16.50  23.121  22.780
  17.00  23.095  22.811
  17.50  23.095  22.780
  18.00  23.121  22.811
  18.50  23.095  22.780
  19.00  23.095  22.780
  19.50  23.095  22.780
  20.00  23.095  22.749
  20.50  23.095  22.780
  21.00  23.069  22.811
  21.50  23.095  22.749
  22.00  23.095  22.811
  22.50  23.121  22.749
  23.00  23.095  22.811
  23.50  23.095  22.780
  24.00  23.095  22.780
  24.50  23.095  22.811
  25.00  23.121  22.749
  25.50  23.121  22.780
  26.00  23.147  22.780
  26.50  23.147  22.780
  27.00  23.173  22.811
  27.50  23.121  22.780
  28.00  23.173  22.780
  28.50  23.199  22.811
  29.00  23.147  22.780
  29.50  23.173  22.780
  30.00  23.173  22.749
  30.50  23.173  22.780
  31.00  23.173  22.749
  31.50  23.173  22.811
  32.00  23.199  22.780
  32.50  23.199  22.842
  33.00  23.173  22.749
  33.50  23.252  22.780
  34.00  23.199  22.780
  34.50  23.226  22.749
  35.00  23.199  22.780
  35.50  23.199  22.780
  36.00  23.199  22.780
  36.50  23.199  22.842
  37.00  23.226  22.780
  37.50  23.199  22.780
  38.00  23.252  22.780
  38.50  23.226  22.780
  39.00  23.199  22.780
  39.50  23.226  22.780
  40.00  23.226  22.780
  40.50  23.252  22.811
  41.00  23.226  22.811
  41.50  23.252  22.780
  42.00  23.199  22.780
  42.50  23.252  22.811
  43.00  23.252  22.749
  43.50  23.252  22.780
  44.00  23.252  22.842
  44.50  23.252  22.811
  45.00  23.252  22.780
  45.50  23.252  22.780
  46.00  23.278  22.780
  46.50  23.278  22.811
  47.00  23.278  22.780
  47.51  23.252  22.780
  48.01  23.278  22.811
  48.51  23.304  22.780
  49.01  23.278  22.780
  49.51  23.278  22.780
  50.01  23.304  22.842
  50.51  23.330  22.811
  51.01  23.252  22.780
  51.51  23.330  22.811
  52.01  23.304  22.780
  52.51  23.278  22.780
  53.01  23.278  22.811
  53.51  23.304  22.842
  54.01  23.330  22.811
  54.51  23.330  22.842
  55.01  23.330  22.811
  55.51  23.330  22.811
  56.01  23.330  22.811
  56.51  23.330  22.811
  57.01  23.330  22.811
  57.51  23.330  22.780
  58.01  23.304  22.780
  58.51  23.330  22.780
  59.01  23.330  22.811
  59.51  23.330  22.749
  60.01  23.356  22.811
  60.51  23.330  22.811
  61.01  23.330  22.719
  61.51  23.330  22.780
  62.01  23.356  22.811
  62.51  23.382  22.780
  63.01  23.356  22.780
  63.51  23.356  22.780
  64.01  23.356  22.780
  64.51  23.356  22.811
  65.01  23.356  22.780
  65.51  23.382  22.811
  66.01  23.382  22.811
  66.51  23.356  22.811
  67.01  23.408  22.811
  67.51  23.382  22.811
  68.01  23.408  22.842
  68.51  23.408  22.842
  69.01  23.434  22.811
  69.51  23.434  22.780
  70.01  23.408  22.811
  70.51  23.434  22.780
  71.01  23.408  22.811
  71.51  23.434  22.811
  72.01  23.408  22.842
  72.51  23.461  22.811
  73.01  23.461  22.780
  73.51  23.434  22.811
  74.01  23.434  22.842
  74.51  23.461  22.842
  75.01  23.434  22.811
  75.51  23.434  22.811
  76.01  23.461  22.811
  76.51  23.461  22.811
  77.01  23.461  22.811
  77.51  23.461  22.749
  78.01  23.461  22.811
  78.51  23.461  22.873
  79.01  23.487  22.811
  79.51  23.461  22.811
  80.01  23.461  22.842
  80.51  23.487  22.811
  81.01  23.539  22.811
  81.51  23.513  22.811
  82.01  23.513  22.811
  82.51  23.487  22.842
  83.01  23.487  22.811
  83.51  23.513  22.719
  84.01  23.513  22.811
  84.51  23.513  22.811
  85.01  23.513  22.811
  85.51  23.513  22.811
  86.01  23.539  22.811
  86.51  23.539  22.842
  87.01  23.513  22.811
  87.51  23.513  22.811
  88.01  23.513  22.903
  88.51  23.513  22.842
  89.01  23.565  22.811
  89.51  23.539  22.811
  90.01  23.539  22.842
  90.51  23.539  22.811
  91.01  23.565  22.842
  91.51  23.565  22.842
  92.01  23.565  22.811
  92.51  23.539  22.811
  93.01  23.591  22.780
  93.51  23.565  22.780
  94.01  23.539  22.842
  94.51  23.565  22.811
  95.01  23.513  22.811
  95.51  23.591  22.842
  96.01  23.539  22.780
  96.51  23.565  22.842
  97.01  23.617  22.749
  97.51  23.591  22.811
  98.01  23.591  22.811
  98.51  23.565  22.842
  99.01  23.591  22.842
  99.51  23.617  22.842
 100.01  23.617  22.811
 100.51  23.617  22.811
 101.01  23.591  22.811
 101.51  23.617  22.811
 102.01  23.617  22.811
 102.51  23.617  22.811
 103.01  23.617  22.811
 103.51  23.617  22.811
 104.01  23.617  22.811
 104.51  23.617  22.842
 105.01  23.591  22.842
 105.51  23.643  22.811
 106.01  23.591  22.842
 106.51  23.643  22.873
 107.01  23.643  22.780
 107.51  23.670  22.842
 108.01  23.643  22.811
 108.51  23.670  22.811
 109.01  23.670  22.811
 109.51  23.670  22.842
 110.01  23.643  22.842
 110.51  23.722  22.811
 111.01  23.670  22.873
 111.51  23.643  22.842
 112.01  23.696  22.842
 112.51  23.696  22.811
 113.01  23.696  22.842
 113.51  23.696  22.842
 114.01  23.696  22.842
 114.51  23.696  22.842
 115.01  23.722  22.842
 115.51  23.722  22.842
 116.01  23.748  22.842
 116.51  23.722  22.873
 117.01  23.722  22.842
 117.51  23.722  22.811
 118.01  23.696  22.842
 118.51  23.748  22.873
 119.01  23.722  22.842
 119.51  23.722  22.811
 120.01  23.748  22.842
 120.51  23.722  22.842
 121.01  23.748  22.811
 121.51  23.800  22.811
 122.01  23.722  22.842
 122.51  23.748  22.842
 123.01  23.748  22.842
 123.51  23.748  22.842
 124.01  23.696  22.842
 124.51  23.748  22.842
 125.01  23.774  22.842
 125.51  23.748  22.873
 126.01  23.748  22.842
 126.51  23.800  22.842
 127.01  23.748  22.842
 127.51  23.800  22.842
 128.01  23.826  22.780
 128.51  23.774  22.842
 129.01  23.774  22.873
 129.51  23.800  22.842
 130.01  23.800  22.873
 130.51  23.774  22.842
 131.01  23.800  22.811
 131.51  23.748  22.811
 132.01  23.800  22.842
 132.51  23.878  22.842
 133.01  23.826  22.811
 133.51  23.774  22.842
 134.01  23.826  22.811
 134.51  23.800  22.842
 135.01  23.826  22.842
 135.51  23.800  22.842
 136.01  23.852  22.842
 136.51  23.826  22.811
 137.01  23.826  22.842
 137.51  23.852  22.842
 138.01  23.852  22.842
 138.51  23.826  22.842
 139.01  23.800  22.811
 139.51  23.852  22.842
 140.01  23.852  22.842
 140.51  23.852  22.873
 141.01  23.852  22.873
 141.51  23.878  22.842
 142.01  23.931  22.842
 142.51  23.852  22.842
 143.01  23.826  22.842
 143.51  23.852  22.842
 144.01  23.826  22.811
 144.51  23.878  22.873
 145.01  23.852  22.842
 145.51  23.878  22.811
 146.01  23.905  22.842
 146.51  23.878  22.811
 147.01  23.878  22.873
 147.51  23.905  22.873
 148.01  23.878  22.842
 148.51  23.878  22.873
 149.01  23.905  22.842
 149.51  23.905  22.842
 150.01  23.905  22.842
 150.51  23.957  22.842
 151.01  23.905  22.842
 151.51  23.931  22.873
 152.01  23.931  22.842
 152.51  23.878  22.873
 153.01  23.931  22.811
 153.51  23.931  22.842
 154.01  23.931  22.873
 154.51  23.983  22.873
 155.01  23.905  22.873
 155.51  23.931  22.811
 156.01  23.931  22.873
 156.51  23.983  22.842
 157.01  23.957  22.873
 157.51  23.931  22.873
 158.01  23.931  22.842
 158.51  23.957  22.873
 159.01  23.931  22.842
 159.51  23.983  22.873
 160.01  23.983  22.842
 160.51  23.957  22.873
 161.01  23.957  22.842
 161.51  23.957  22.873
 162.01  23.957  22.873
 162.51  23.983  22.842
 163.01  23.983  22.873
 163.51  24.009  22.811
 164.01  23.983  22.842
 164.51  24.009  22.842
 165.01  23.957  22.873
 165.51  24.009  22.873
 166.01  24.035  22.873
 166.51  24.009  22.873
 167.01  24.009  22.842
 167.51  24.009  22.873
 168.01  24.009  22.842
 168.51  24.035  22.873
 169.01  24.009  22.811
 169.51  24.035  22.903
 170.01  24.035  22.873
 170.51  24.035  22.873
 171.01  24.035  22.873
 171.52  24.035  22.842
 172.02  24.035  22.903
 172.52  24.009  22.873
 173.02  24.009  22.842
 173.52  24.035  22.842
 174.02  24.061  22.873
 174.52  24.035  22.873
 175.02  24.061  22.873
 175.52  24.061  22.873
 176.02  24.061  22.873
 176.52  24.061  22.873
 177.02  24.061  22.934
 177.52  24.087  22.903
 178.02  24.035  22.873
 178.52  24.087  22.873
 179.02  24.061  22.873
 179.52  24.061  22.903
 180.02  24.087  22.873
 180.52  24.087  22.842
 181.02  24.087  22.873
 181.52  24.113  22.873
 182.02  24.087  22.873
 182.52  24.087  22.842
 183.02  24.087  22.903
 183.52  24.087  22.842
 184.02  24.140  22.842
 184.52  24.087  22.873
 185.02  24.113  22.873
 185.52  24.113  22.873
 186.02  24.113  22.842
 186.52  24.113  22.873
 187.02  24.113  22.873
 187.52  24.061  22.842
 188.02  24.113  22.873
 188.52  24.113  22.842
 189.02  24.140  22.873
 189.52  24.140  22.903
 190.02  24.140  22.873
 190.52  24.113  22.965
 191.02  24.140  22.842
 191.52  24.166  22.873
 192.02  24.166  22.873
 192.52  24.140  22.903
 193.02  24.140  22.903
 193.52  24.166  22.811
 194.02  24.113  22.842
 194.52  24.113  22.873
 195.02  24.140  22.842
 195.52  24.192  22.903
 196.02  24.166  22.873
 196.52  24.166  22.842
 197.02  24.140  22.903
 197.52  24.166  22.842
 198.02  24.192  22.903
 198.52  24.166  22.873
 199.02  24.166  22.842
 199.52  24.192  22.873
 200.02  24.192  22.873
 200.52  24.166  22.842
 201.02  24.192  22.842
 201.52  24.192  22.873
 202.02  24.192  22.873
 202.52  24.166  22.842
 203.02  24.218  22.903
 203.52  24.166  22.873
 204.02  24.218  22.873
 204.52  24.218  22.873
 205.02  24.218  22.903
 205.52  24.218  22.873
 206.02  24.192  22.903
 206.52  24.218  22.842
 207.02  24.218  22.873
 207.52  24.192  22.842
 208.02  24.244  22.873
 208.52  24.270  22.903
 209.02  24.244  22.903
 209.52  24.244  22.842
 210.02  24.244  22.873
 210.52  24.244  22.873
 211.02  24.244  22.811
 211.52  24.244  22.873
 212.02  24.296  22.873
 212.52  24.270  22.903
 213.02  24.270  22.903
 213.52  24.270  22.873
 214.02  24.296  22.873
 214.52  24.296  22.873
 215.02  24.296  22.873
 215.52  24.244  22.873
 216.02  24.270  22.934
 216.52  24.270  22.903
 217.02  24.244  22.873
 217.52  24.296  22.903
 218.02  24.322  22.903
 218.52  24.322  22.903
 219.02  24.296  22.873
 219.52  24.322  22.873
 220.02  24.270  22.903
 220.52  24.296  22.903
 221.02  24.296  22.873
 221.52  24.296  22.873
 222.02  24.296  22.873
 222.52  24.322  22.873
 223.02  24.348  22.903
 223.52  24.322  22.873
 224.02  24.348  22.903
 224.52  24.401  22.903
 225.02  24.296  22.873
 225.52  24.375  22.873
 226.02  24.348  22.873
 226.52  24.322  22.873
 227.02  24.348  22.873
 227.52  24.296  22.873
 228.02  24.348  22.842
 228.52  24.375  22.842
 229.02  24.375  22.903
 229.52  24.348  22.903
 230.02  24.348  22.903
 230.52  24.348  22.842
 231.02  24.348  22.934
 231.52  24.348  22.903
 232.02  24.375  22.934
 232.52  24.375  22.903
 233.02  24.401  22.873
 233.52  24.375  22.873
 234.02  24.375  22.934
 234.52  24.427  22.873
 235.02  24.375  22.903
 235.52  24.375  22.873
 236.02  24.348  22.903
 236.52  24.401  22.903
 237.02  24.401  22.934
 237.52  24.401  22.903
 238.02  24.427  22.873
 238.52  24.401  22.903
 239.02  24.427  22.873
 239.52  24.348  22.873
 240.02  24.401  22.903
 240.52  24.427  22.903
 241.02  24.401  22.903
 241.52  24.401  22.873
 242.02  24.348  22.873
 242.52  24.427  22.903
 243.02  24.401  22.873
 243.52  24.427  22.934
 244.02  24.427  22.903
 244.52  24.427  22.934
 245.02  24.427  22.903
 245.52  24.427  22.873
 246.02  24.401  22.873
 246.52  24.401  22.873
 247.02  24.427  22.903
 247.52  24.453  22.842
 248.02  24.453  22.873
 248.52  24.401  22.903
 249.02  24.427  22.903
 249.52  24.401  22.903
 250.02  24.401  22.903
 250.52  24.453  22.873
 251.02  24.453  22.903
 251.52  24.479  22.903
 252.02  24.453  22.903
 252.52  24.453  22.873
 253.02  24.453  22.873
 253.52  24.479  22.903
 254.02  24.479  22.934
 254.52  24.479  22.934
 255.02  24.505  22.903
 255.52  24.479  22.903
 256.02  24.505  22.934
 256.52  24.479  22.903
 257.02  24.479  22.903
 257.52  24.479  22.903
 258.02  24.479  22.873
 258.52  24.479  22.873
 259.02  24.479  22.965
 259.52  24.505  22.903
 260.02  24.505  22.903
 260.52  24.505  22.903
 261.02  24.505  22.903
 261.52  24.505  22.903
 262.02  24.531  22.903
 262.52  24.505  22.903
 263.02  24.505  22.903
 263.52  24.531  22.903
 264.02  24.505  22.903
 264.52  24.531  22.903
 265.02  24.505  22.903
 265.52  24.531  22.934
 266.02  24.531  22.903
 266.52  24.531  22.934
 267.02  24.531  22.903
 267.52  24.531  22.996
 268.02  24.531  22.903
 268.52  24.557  22.873
 269.02  24.531  22.873
 269.52  24.557  22.903
 270.02  24.557  22.903
 270.52  24.531  22.934
 271.02  24.531  22.873
 271.52  24.583  22.903
 272.02  24.557  22.903
 272.52  24.583  22.903
 273.02  24.557  22.903
 273.52  24.557  22.934
 274.02  24.583  22.903
 274.52  24.610  22.934
 275.02  24.583  22.934
 275.52  24.583  22.934
 276.02  24.557  22.934
 276.52  24.583  22.903
 277.02  24.583  22.903
 277.52  24.610  22.903
 278.02  24.610  22.903
 278.52  24.610  22.934
 279.02  24.610  22.934
 279.52  24.610  22.903
 280.02  24.610  22.903
 280.52  24.610  22.965
 281.02  24.636  22.934
 281.52  24.583  22.934
 282.02  24.610  22.903
 282.52  24.610  22.873
 283.02  24.610  22.903
 283.52  24.610  22.903
 284.02  24.610  22.934
 284.52  24.610  22.873
 285.03  24.636  22.873
 285.53  24.610  22.903
 286.03  24.662  22.903
 286.53  24.610  22.934
 287.03  24.636  22.903
 287.53  24.636  22.903
 288.03  24.636  22.934
 288.53  24.636  22.903
 289.03  24.636  22.965
 289.53  24.662  22.934
 290.03  24.636  22.873
 290.53  24.636  22.934
 291.03  24.662  22.934
 291.53  24.662  22.934
 292.03  24.636  22.934
 292.53  24.662  22.903
 293.03  24.636  22.934
 293.53  24.662  22.934
 294.03  24.636  22.934
 294.53  24.636  22.934
 295.03  24.662  22.965
 295.53  24.688  22.934
 296.03  24.662  22.903
 296.53  24.662  22.934
 297.03  24.662  22.903
 297.53  24.662  22.903
 298.03  24.688  22.934
 298.53  24.688  22.903
 299.03  24.714  22.903
 299.53  24.688  22.903
 300.03  24.688  22.965
 300.53  24.688  22.903
 301.03  24.688  22.965
 301.53  24.662  22.934
 302.03  24.688  22.903
 302.53  24.714  22.903
 303.03  24.688  22.934
 303.53  24.714  22.903
 304.03  24.714  22.934
 304.53  24.688  22.903
 305.03  24.714  22.934
 305.53  24.688  22.934
 306.03  24.714  22.903
 306.53  24.714  22.934
 307.03  24.688  22.934
 307.53  24.714  22.934
 308.03  24.766  22.934
 308.53  24.740  22.903
 309.03  24.792  22.873
 309.53  24.740  22.903
 310.03  24.740  22.903
 310.53  24.714  22.934
 311.03  24.740  22.934
 311.53  24.714  22.842
 312.03  24.740  22.903
 312.53  24.740  22.903
 313.03  24.740  22.965
 313.53  24.740  22.903
 314.03  24.714  22.903
 314.53  24.766  22.934
 315.03  24.740  22.903
 315.53  24.766  22.903
 316.03  24.766  22.934
 316.53  24.766  22.934
 317.03  24.766  22.903
 317.53  24.740  22.965
 318.03  24.740  22.903
 318.53  24.740  22.934
 319.03  24.766  22.934
 319.53  24.740  22.934
 320.03  24.766  22.903
 320.53  24.792  22.934
 321.03  24.766  22.934
 321.53  24.766  22.873
 322.03  24.792  22.934
 322.53  24.819  22.934
 323.03  24.792  22.934
 323.53  24.819  22.903
 324.03  24.766  22.903
 324.53  24.740  22.903
 325.03  24.792  22.934
 325.53  24.792  22.903
 326.03  24.792  22.903
 326.53  24.845  22.934
 327.03  24.792  22.934
 327.53  24.819  22.934
 328.03  24.819  22.903
 328.53  24.819  22.934
 329.03  24.819  22.934
 329.53  24.792  22.903
 330.03  24.845  22.934
 330.53  24.819  22.934
 331.03  24.740  22.934
 331.53  24.845  22.965
 332.03  24.819  22.965
 332.53  24.819  22.965
 333.03  24.819  22.934
 333.53  24.819  22.934
 334.03  24.819  22.934
 334.53  24.845  22.934
 335.03  24.845  22.965
 335.53  24.871  22.903
 336.03  24.819  22.965
 336.53  24.871  22.934
 337.03  24.871  22.934
 337.53  24.871  22.934
 338.03  24.845  22.965
 338.53  24.845  22.965
 339.03  24.871  22.934
 339.53  24.871  22.965
 340.03  24.897  22.934
 340.53  24.871  22.965
 341.03  24.871  22.934
 341.53  24.871  22.996
 342.03  24.819  22.934
 342.53  24.871  22.903
 343.03  24.897  22.903
 343.53  24.871  22.903
 344.03  24.897  22.965
 344.53  24.871  22.934
 345.03  24.897  22.934
 345.53  24.897  22.965
 346.03  24.897  22.996
 346.53  24.923  22.934
 347.03  24.923  22.965
 347.53  24.923  22.965
 348.03  24.923  22.903
 348.53  24.923  22.934
 349.03  24.897  22.965
 349.53  24.897  22.934
 350.03  24.923  22.996
 350.53  24.897  22.934
 351.03  24.897  22.934
 351.53  24.923  22.934
 352.03  24.897  22.934
 352.53  24.949  22.965
 353.03  24.923  22.934
 353.53  24.949  22.934
 354.03  24.949  22.965
 354.53  24.923  22.965
 355.03  24.897  22.965
 355.53  24.923  22.934
 356.03  24.949  22.965
 356.53  24.923  22.934
 357.03  24.923  22.996
 357.53  24.923  22.965
 358.03  24.949  22.934
 358.53  24.949  22.965
 359.03  24.949  22.934
 359.53  24.949  22.965
 360.03  24.975  22.934
 360.53  24.949  22.965
 361.03  24.949  22.934
 361.53  24.949  22.996
 362.03  24.975  22.965
 362.53  24.949  22.996
 363.03  24.949  22.934
 363.53  24.949  22.903
 364.03  24.975  22.934
 364.53  24.949  22.965
 365.03  24.949  22.934
 365.53  24.975  22.934
 366.03  24.975  22.965
 366.53  24.975  22.934
 367.03  24.949  22.965
 367.53  25.005  22.965
 368.03  24.975  22.934
 368.53  24.975  22.996
 369.03  24.975  22.934
 369.53  24.975  22.934
 370.03  25.005  22.965
 370.53  25.005  22.965
 371.03  25.005  22.996
 371.53  24.949  22.934
 372.03  25.005  22.965
 372.53  25.005  22.934
 373.03  25.005  22.965
 373.53  25.005  22.934
 374.03  25.005  22.965
 374.53  25.005  22.934
 375.03  25.005  22.934
 375.53  25.005  22.934
 376.03  25.114  22.934
 376.53  25.114  22.903
 377.03  25.005  22.934
 377.53  25.005  22.965
 378.03  25.114  22.965
 378.53  25.005  22.965
 379.03  25.222  22.965
 379.53  25.005  22.965
 380.03  25.005  22.965
 380.53  25.005  22.934
 381.03  25.114  22.965
 381.53  25.005  22.934
 382.03  25.005  22.934
 382.53  25.114  22.996
 383.03  25.114  22.934
 383.53  25.114  22.965
 384.03  25.222  22.934
 384.53  25.114  22.934
 385.03  25.330  22.934
 385.53  25.222  22.903
 386.03  25.330  22.965
 386.53  25.114  22.934
 387.04  25.222  22.965
 387.54  25.114  22.903
 388.04  25.330  22.965
 388.54  25.005  22.965
 389.04  25.222  22.934
 389.54  25.222  22.934
 390.04  25.222  22.934
 390.54  25.330  22.965
 391.04  25.222  22.934
 391.54  25.222  22.965
 392.04  25.330  22.934
 392.54  25.438  22.934
 393.04  25.222  22.965
 393.54  25.330  22.965
 394.04  25.222  22.965
 394.54  25.330  22.996
 395.04  25.330  22.934
 395.54  25.222  22.965
 396.04  25.330  22.965
 396.54  25.330  22.934
 397.04  25.222  22.996
 397.54  25.330  22.965
 398.04  25.330  22.965
 398.54  25.438  22.965
 399.04  25.438  22.965
 399.54  25.438  22.934
 400.04  25.547  22.965
 400.54  25.438  22.965
 401.04  25.547  22.996
 401.54  25.330  22.965
 402.04  25.547  22.965
 402.54  25.438  22.934
 403.04  25.438  22.934
 403.54  25.547  22.996
 404.04  25.438  22.965
 404.54  25.547  22.965
 405.04  25.547  22.965
 405.54  25.438  22.965
 406.04  25.547  22.965
 406.54  25.438  22.934
 407.04  25.438  22.934
 407.54  25.547  22.965
 408.04  25.547  22.965
 408.54  25.547  22.965
 409.04  25.438  22.965
 409.54  25.547  22.934
 410.04  25.655  22.934
 410.54  25.547  22.996
 411.04  25.547  22.965
 411.54  25.547  22.934
 412.04  25.655  22.965
 412.54  25.655  22.965
 413.04  25.438  22.965
 413.54  25.655  22.996
 414.04  25.547  22.965
 414.54  25.655  22.965
 415.04  25.763  22.996
 415.54  25.655  22.965
 416.04  25.655  22.965
 416.54  25.655  22.934
 417.04  25.763  22.934
 417.54  25.763  22.965
 418.04  25.763  22.965
 418.54  25.763  22.965
 419.04  25.547  22.965
 419.54  25.763  22.965
 420.04  25.871  22.965
 420.54  25.763  22.965
 421.04  25.763  22.934
 421.54  25.763  22.996
 422.04  25.871  23.027
 422.54  25.763  22.996
 423.04  25.655  22.965
 423.54  25.763  22.996
 424.04  25.871  22.965
 424.54  25.655  22.965
 425.04  25.763  22.965
 425.54  25.763  22.996
 426.04  25.871  22.965
 426.54  25.763  22.996
 427.04  25.871  22.965
 427.54  25.763  22.965
 428.04  25.871  22.965
 428.54  25.871  22.965
 429.04  25.980  22.965
 429.54  25.763  22.965
 430.04  26.196  22.965
 430.54  25.980  22.965
 431.04  25.871  22.965
 431.54  25.980  22.965
 432.04  25.980  22.965
 432.54  25.871  22.996
 433.04  25.980  22.965
 433.54  25.980  22.965
 434.04  25.871  22.965
 434.54  25.871  22.996
 435.04  25.980  22.965
 435.54  25.871  22.996
 436.04  25.980  22.996
 436.54  26.088  22.965
 437.04  26.196  22.965
 437.54  26.088  22.965
 438.04  26.088  22.965
 438.54  26.088  22.996
 439.04  25.980  22.996
 439.54  25.980  22.965
 440.04  26.196  22.996
 440.54  26.088  22.996
 441.04  26.196  22.996
 441.54  26.088  22.996
 442.04  26.088  22.996
 442.54  26.088  22.965
 443.04  26.088  22.965
 443.54  25.980  22.996
 444.04  25.980  22.965
 444.54  26.088  22.996
 445.04  26.088  22.965
 445.54  26.196  22.965
 446.04  26.088  22.996
 446.54  26.196  22.996
 447.04  26.196  22.965
 447.54  26.196  22.996
 448.04  26.304  22.996
 448.54  26.196  22.996
 449.04  26.196  22.965
 449.54  26.088  22.996
 450.04  26.196  22.934
 450.54  26.196  22.965
 451.04  26.196  22.934
 451.54  26.196  23.027
 452.04  26.088  22.965
 452.54  26.304  22.965
 453.04  26.196  22.965
 453.54  26.196  22.965
 454.04  26.304  22.934
 454.54  26.196  22.965
 455.04  26.304  22.965
 455.54  26.304  22.996
 456.04  26.521  22.996
 456.54  26.304  22.996
 457.04  26.413  22.996
 457.54  26.304  22.965
 458.04  26.304  22.965
 458.54  26.413  22.965
 459.04  26.304  22.965
 459.54  26.413  22.996
 460.04  26.413  22.996
 460.54  26.304  22.996
 461.04  26.413  22.996
 461.54  26.413  22.965
 462.04  26.521  22.996
 462.54  26.413  22.965
 463.04  26.413  22.996
 463.54  26.304  22.996
 464.04  26.413  22.996
 464.54  26.629  22.996
 465.04  26.413  22.965
 465.54  26.521  22.965
 466.04  26.521  22.903
 466.54  26.521  22.996
 467.04  26.304  22.996
 467.54  26.629  22.996
 468.04  26.521  22.996
 468.54  26.629  22.996
 469.04  26.521  22.996
 469.54  26.629  22.996
 470.04  26.521  22.965
 470.54  26.521  22.934
 471.04  26.521  22.996
 471.54  26.629  22.965
 472.04  26.629  22.965
 472.54  26.737  22.996
 473.04  26.521  22.996
 473.54  26.629  22.965
 474.04  26.629  22.965
 474.54  26.737  22.965
 475.04  26.629  22.996
 475.54  26.629  22.996
 476.04  26.521  22.996
 476.54  26.737  22.965
 477.04  26.629  22.996
 477.54  26.521  22.965
 478.04  26.954  22.965
 478.54  26.737  22.965
 479.04  26.737  22.965
 479.54  26.629  22.996
 480.04  26.629  22.996
 480.54  26.737  23.027
 481.04  26.629  22.934
 481.54  26.737  22.996
 482.04  26.846  22.996
 482.54  26.737  22.996
 483.04  26.737  23.027
 483.54  26.737  23.027
 484.04  26.846  23.027
 484.54  26.629  23.027
 485.04  26.846  23.027
 485.54  26.846  23.027
 486.04  26.737  23.027
 486.54  26.846  22.996
 487.04  26.846  22.996
 487.54  26.846  22.996
 488.04  26.737  22.996
 488.54  26.954  22.996
 489.04  26.846  22.996
 489.54  26.846  23.027
 490.04  26.954  22.996
 490.54  26.954  22.965
 491.04  26.846  23.027
 491.54  26.846  22.996
 492.04  26.954  23.027
 492.54  27.062  22.996
 493.04  26.954  23.027
 493.54  26.954  23.027
 494.04  26.954  22.996
 494.54  26.846  23.027
 495.04  26.954  23.027
 495.54  26.954  23.027
 496.04  26.954  23.027
 496.54  26.954  22.996
 497.04  26.954  23.027
 497.54  26.954  23.027
 498.04  27.062  23.027
 498.54  27.062  22.996
 499.04  27.062  22.996
 499.54  26.954  22.996
 500.04  26.954  23.027
 500.55  27.062  22.965
 501.05  27.062  22.965
 501.55  27.062  22.996
 502.05  27.062  22.996
 502.55  27.170  22.996
 503.05  26.954  22.996
 503.55  27.062  23.027
 504.05  27.170  22.996
 504.55  27.062  23.027
 505.05  27.170  22.996
 505.55  27.062  23.027
 506.05  27.062  22.996
 506.55  27.062  22.965
 507.05  27.062  23.027
 507.55  27.170  22.996
 508.05  27.170  23.027
 508.55  27.170  22.996
 509.05  27.170  23.027
 509.55  27.170  22.996
 510.05  27.170  22.996
 510.55  27.170  23.027
 511.05  27.170  23.027
 511.55  27.170  22.996
 512.05  27.170  22.996
 512.55  27.279  22.996
 513.05  27.170  23.058
 513.55  27.170  23.027
 514.05  27.279  22.996
 514.55  27.170  23.027
 515.05  27.170  23.027
 515.55  27.170  23.027
 516.05  27.279  23.027
 516.55  27.279  23.027
 517.05  27.279  22.996
 517.55  27.279  22.996
 518.05  27.170  23.027
 518.55  27.279  22.996
 519.05  27.170  23.027
 519.55  27.279  22.996
 520.05  27.062  23.027
 520.55  27.062  22.996
 521.05  27.387  23.027
 521.55  27.387  23.027
 522.05  27.279  23.027
 522.55  27.279  22.996
 523.05  27.387  23.088
 523.55  27.279  23.027
 524.05  27.387  22.996
 524.55  27.279  23.027
 525.05  27.387  23.027
 525.55  27.387  23.058
 526.05  27.495  23.027
 526.55  27.279  23.027
 527.05  27.387  23.027
 527.55  27.279  23.027
 528.05  27.279  22.996
 528.55  27.387  23.027
 529.05  27.387  23.027
 529.55  27.279  23.027
 530.05  27.170  23.058
 530.55  27.495  22.965
 531.05  27.387  23.027
 531.55  27.387  23.058
 532.05  27.387  23.027
 532.55  27.387  23.058
 533.05  27.387  22.996
 533.55  27.495  23.027
 534.05  27.495  23.027
 534.55  27.387  23.027
 535.05  27.495  22.996
 535.55  27.495  23.058
 536.05  27.495  23.027
 536.55  27.495  23.027
 537.05  27.603  23.027
 537.55  27.387  22.996
 538.05  27.495  23.027
 538.55  27.495  23.058
 539.05  27.495  23.027
 539.55  27.495  22.965
 540.05  27.495  23.027
 540.55  27.495  23.058
 541.05  27.495  23.027
 541.55  27.495  22.996
 542.05  27.495  23.027
 542.55  27.603  23.027
 543.05  27.603  22.996
 543.55  27.603  22.996
 544.05  27.603  23.058
 544.55  27.603  22.996
 545.05  27.603  22.996
 545.55  27.603  22.996
 546.05  27.603  22.996
 546.55  27.495  22.996
 547.05  27.603  22.996
 547.55  27.603  23.027
 548.05  27.603  23.027
 548.55  27.495  23.027
 549.05  27.820  23.027
 549.55  27.603  23.027
 550.05  27.603  23.027
 550.55  27.603  22.996
 551.05  27.603  22.965
 551.55  27.603  23.027
 552.05  27.603  22.996
 552.55  27.603  23.027
 553.05  27.495  23.027
 553.55  27.712  23.027
 554.05  27.712  22.996
 554.55  27.820  22.996
 555.05  27.712  23.027
 555.55  27.712  23.027
 556.05  27.712  23.027
 556.55  27.603  23.027
 557.05  27.820  23.027
 557.55  27.712  23.027
 558.05  27.603  22.996
 558.55  27.820  23.027
 559.05  27.712  23.027
 559.55  27.820  23.027
 560.05  27.820  23.027
 560.55  27.820  23.027
 561.05  27.820  23.027
 561.55  27.712  22.996
 562.05  27.820  23.027
 562.55  27.820  23.027
 563.05  27.820  23.027
 563.55  27.820  23.058
 564.05  27.820  23.027
 564.55  27.928  23.027
 565.05  27.820  22.996
 565.55  27.820  23.027
 566.05  27.712  23.027
 566.55  27.820  23.027
 567.05  27.712  23.027
 567.55  27.820  23.027
 568.05  27.712  23.027
 568.55  27.928  23.027
 569.05  27.820  23.027
 569.55  27.820  23.027
 570.05  27.928  23.027
 570.55  27.928  23.058
 571.05  27.928  23.027
 571.55  27.928  23.027
 572.05  27.820  23.027
 572.55  28.145  23.058
 573.05  28.036  23.027
 573.55  27.928  23.088
 574.05  27.928  23.058
 574.55  27.928  23.058
 575.05  27.820  23.058
 575.55  28.036  23.027
 576.05  27.928  23.088
 576.55  27.928  23.027
 577.05  28.036  23.058
 577.55  27.820  23.058
 578.05  27.928  23.058
 578.55  27.928  23.058
 579.05  27.603  23.058
 579.55  28.036  23.027
 580.05  28.036  23.027
 580.55  28.145  23.027
 581.05  28.036  23.058
 581.55  28.036  23.058
 582.05  28.036  23.027
 582.55  28.036  23.058
 583.05  27.928  23.027
 583.55  28.036  23.058
 584.05  28.036  23.058
 584.55  28.036  23.058
 585.05  28.145  23.027
 585.55  28.036  22.996
 586.05  28.145  23.027
 586.55  28.145  23.088
 587.05  28.145  23.058
 587.55  28.036  23.058
 588.05  28.145  23.027
 588.55  28.036  23.058
 589.05  28.145  23.088
 589.55  28.253  23.027
 590.05  28.253  23.088
 590.55  28.036  23.027
 591.05  27.928  23.027
 591.55  28.253  23.058
 592.05  28.145  23.027
 592.55  28.036  22.996
 593.05  28.253  23.027
 593.55  28.145  23.058
 594.05  28.145  23.058
 594.55  28.361  23.027
 595.05  28.253  23.058
 595.55  28.253  23.058
 596.05  28.145  23.088
 596.55  28.253  23.027
 597.05  28.145  23.058
 597.55  28.145  22.996
 598.05  28.253  23.027
 598.55  28.253  23.027
 599.05  28.253  23.027
 599.55  28.145  23.058
 600.05  28.253  23.058
 600.55  28.253  23.027
 601.05  28.253  23.058
 601.55  28.253  23.058
 602.05  28.361  23.058
 602.55  28.145  23.058
 603.05  28.253  23.027
 603.55  28.253  23.027
 604.05  28.361  23.027
 604.55  28.469  23.027
 605.05  28.253  23.058
 605.55  28.253  23.027
 606.05  28.253  23.088
 606.55  28.361  23.058
 607.05  28.361  23.027
 607.55  28.361  23.058
 608.05  28.361  23.027
 608.55  28.361  23.058
 609.05  28.361  23.058
 609.55  28.361  23.058
 610.05  28.361  23.088
 610.55  28.361  23.027
 611.05  28.469  23.058
 611.55  28.361  23.027
 612.05  28.145  23.058
 612.55  28.578  23.058
 613.05  28.469  23.088
 613.55  28.469  23.058
 614.05  28.361  23.088
 614.55  28.361  23.058
 615.05  28.469  23.058
 615.55  28.686  23.058
 616.05  28.361  23.058
 616.55  28.469  23.088
 617.05  28.361  23.088
 617.55  28.469  23.058
 618.05  28.469  23.058
 618.55  28.578  23.088
 619.05  28.578  23.058
 619.55  28.361  23.058
 620.05  28.469  23.058
 620.55  28.469  23.027
 621.05  28.469  23.058
 621.55  28.578  23.027
 622.05  28.686  23.058
 622.55  28.469  23.058
 623.05  28.469  23.058
 623.55  28.361  23.058
 624.05  28.361  23.088
 624.56  28.578  23.058
 625.06  28.578  23.058
 625.56  28.469  23.027
 626.06  28.578  23.088
 626.56  28.578  23.058
 627.06  28.578  23.058
 627.56  28.578  23.058
 628.06  28.469  23.027
 628.56  28.578  23.058
 629.06  28.578  23.058
 629.56  28.469  23.088
 630.06  28.578  23.119
 630.56  28.578  23.058
 631.06  28.578  23.058
 631.56  28.686  23.058
 632.06  28.578  23.058
 632.56  28.578  23.119
 633.06  28.578  23.058
 633.56  28.578  23.058
 634.06  28.361  23.027
 634.56  28.794  23.058
 635.06  28.794  23.058
 635.56  28.578  23.058
 636.06  28.578  23.027
 636.56  28.578  23.058
 637.06  28.578  23.027
 637.56  28.686  23.088
 638.06  28.686  23.058
 638.56  28.686  23.058
 639.06  28.794  23.058
 639.56  28.686  23.027
 640.06  28.686  23.058
 640.56  28.686  23.058
 641.06  28.578  23.058
 641.56  28.686  23.058
 642.06  28.794  23.088
 642.56  28.794  23.058
 643.06  28.578  23.058
 643.56  28.794  23.058
 644.06  28.686  23.058
 644.56  28.902  23.058
 645.06  28.794  23.058
 645.56  28.578  23.088
 646.06  28.686  23.088
 646.56  28.902  23.088
 647.06  28.794  23.058
 647.56  28.578  23.088
 648.06  28.902  23.058
 648.56  28.794  23.027
 649.06  28.686  23.058
 649.56  28.794  23.088
 650.06  28.686  23.027
 650.56  28.794  23.058
 651.06  28.902  23.058
 651.56  28.794  23.027
 652.06  28.794  23.058
 652.56  28.902  23.027
 653.06  28.902  23.058
 653.56  28.794  23.058
 654.06  28.794  23.058
 654.56  28.902  23.058
 655.06  28.794  23.058
 655.56  28.902  23.058
 656.06  28.902  23.088
 656.56  28.794  23.058
 657.06  28.794  23.058
 657.56  28.794  23.058
 658.06  28.794  23.027
 658.56  29.011  23.058
 659.06  28.902  23.058
 659.56  28.794  23.058
 660.06  28.902  23.058
 660.56  29.011  23.058
 661.06  28.794  23.058
 661.56  28.902  23.088
 662.06  28.794  23.058
 662.56  28.794  23.088
 663.06  28.902  23.058
 663.56  28.902  23.027
 664.06  28.902  23.058
 664.56  28.902  23.058
 665.06  28.902  23.088
 665.56  29.011  23.058
 666.06  28.902  23.088
 666.56  28.794  23.058
 667.06  29.011  23.058
 667.56  29.119  23.058
 668.06  28.902  23.088
 668.56  29.011  23.088
 669.06  29.011  23.058
 669.56  29.011  23.119
 670.06  29.119  23.058
 670.56  29.011  23.058
 671.06  29.011  23.088
 671.56  29.011  23.058
 672.06  29.119  23.058
 672.56  29.011  23.119
 673.06  29.227  23.058
 673.56  29.011  23.058
 674.06  29.119  23.027
 674.56  29.119  23.058
 675.06  29.119  23.058
 675.56  29.011  23.058
 676.06  28.902  23.088
 676.56  28.902  23.058
 677.06  29.011  23.058
 677.56  29.011  23.058
 678.06  29.011  23.058
 678.56  29.119  23.088
 679.06  29.119  23.119
 679.56  29.011  23.088
 680.06  29.227  23.088
 680.56  29.119  23.027
 681.06  29.011  23.119
 681.56  29.119  23.119
 682.06  28.902  23.058
 682.56  29.227  23.027
 683.06  29.119  23.119
 683.56  29.227  23.058
 684.06  29.227  23.058
 684.56  29.119  23.058
 685.06  29.119  23.088
 685.56  29.119  23.119
 686.06  29.119  23.088
 686.56  29.011  23.088
 687.06  29.227  23.088
 687.56  29.227  23.119
 688.06  29.119  23.088
 688.56  29.335  23.058
 689.06  29.011  23.088
 689.56  29.011  23.088
 690.06  29.227  23.058
 690.56  29.119  23.088
 691.06  29.227  23.088
 691.56  29.227  23.088
 692.06  29.335  23.058
 692.56  29.227  23.088
 693.06  29.227  23.088
 693.56  29.119  23.088
 694.06  29.227  23.088
 694.56  29.119  23.088
 695.06  29.227  23.058
 695.56  29.227  23.088
 696.06  29.227  23.058
 696.56  29.227  23.088
 697.06  29.119  23.088
 697.56  29.335  23.088
 698.06  29.119  23.088
 698.56  29.227  23.058
 699.06  29.444  23.088
 699.56  29.335  23.088
 700.06  29.227  23.119
 700.56  29.335  23.150
 701.06  29.227  23.088
 701.56  29.335  23.088
 702.06  29.335  23.088
 702.56  29.227  23.119
 703.06  29.444  23.088
 703.56  29.335  23.088
 704.06  29.335  23.058
 704.56  29.227  23.058
 705.06  29.335  23.058
 705.56  29.335  23.119
 706.06  29.335  23.119
 706.56  29.227  23.058
 707.06  29.335  23.058
 707.56  29.227  23.088
 708.06  29.444  23.058
 708.56  29.335  23.088
 709.06  29.335  23.088
 709.56  29.335  23.088
 710.06  29.335  23.088
 710.56  29.335  23.088
 711.06  29.444  23.119
 711.56  29.444  23.088
 712.06  29.335  23.088
 712.56  29.552  23.088
 713.06  29.444  23.088
 713.56  29.444  23.088
 714.06  29.227  23.088
 714.56  29.444  23.058
 715.06  29.335  23.088
 715.56  29.444  23.150
 716.06  29.552  23.119
 716.56  29.444  23.058
 717.06  29.444  23.119
 717.56  29.444  23.119
 718.06  29.444  23.088
 718.56  29.444  23.119
 719.06  29.444  23.119
 719.56  29.552  23.058
 720.06  29.444  23.088
 720.56  29.444  23.119
 721.06  29.552  23.088
 721.56  29.552  23.088
 722.06  29.552  23.119
 722.56  29.552  23.088
 723.06  29.552  23.150
 723.56  29.660  23.058
 724.06  29.444  23.088
 724.56  29.552  23.088
 725.06  29.552  23.119
 725.56  29.552  23.119
 726.06  29.552  23.088
 726.57  29.552  23.088
 727.07  29.660  23.119
 727.57  29.444  23.119
 728.07  29.552  23.119
 728.57  29.444  23.119
 729.07  29.552  23.088
 729.57  29.552  23.119
 730.07  29.552  23.119
 730.57  29.877  23.119
 731.07  29.552  23.119
 731.57  29.552  23.088
 732.07  29.660  23.150
 732.57  29.660  23.119
 733.07  29.552  23.150
 733.57  29.444  23.119
 734.07  29.552  23.119
 734.57  29.660  23.119
 735.07  29.552  23.088
 735.57  29.660  23.119
 736.07  29.552  23.088
 736.57  29.660  23.088
 737.07  29.552  23.088
 737.57  29.768  23.088
 738.07  29.660  23.119
 738.57  29.552  23.119
 739.07  29.552  23.088
 739.57  29.660  23.058
 740.07  29.660  23.088
 740.57  29.552  23.119
 741.07  29.768  23.119
 741.57  29.768  23.119
 742.07  29.660  23.088
 742.57  29.660  23.088
 743.07  29.660  23.088
 743.57  29.660  23.119
 744.07  29.768  23.088
 744.57  29.768  23.119
 745.07  29.985  23.088
 745.57  29.768  23.119
 746.07  29.552  23.119
 746.57  29.768  23.088
 747.07  29.660  23.119
 747.57  29.768  23.119
 748.07  29.660  23.088
 748.57  29.768  23.119
 749.07  29.660  23.088
 749.57  29.877  23.088
 750.07  29.768  23.119
 750.57  29.768  23.088
 751.07  29.768  23.088
 751.57  29.877  23.088
 752.07  29.877  23.119
 752.57  29.768  23.119
 753.07  29.660  23.088
 753.57  29.877  23.119
 754.07  29.768  23.119
 754.57  29.877  23.119
 755.07  29.768  23.119
 755.57  29.768  23.119
 756.07  29.768  23.088
 756.57  29.877  23.088
 757.07  29.877  23.088
 757.57  29.768  23.119
 758.07  29.660  23.119
 758.57  29.877  23.119
 759.07  29.768  23.058
 759.57  29.660  23.150
 760.07  29.877  23.150
 760.57  29.768  23.088
 761.07  29.768  23.119
 761.57  29.877  23.088
 762.07  29.768  23.119
 762.57  29.768  23.119
 763.07  29.768  23.119
 763.57  29.877  23.119
 764.07  29.877  23.119
 764.57  29.877  23.119
 765.07  29.877  23.088
 765.57  29.985  23.119
 766.07  29.877  23.088
 766.57  29.877  23.088
 767.07  29.877  23.119
 767.57  30.101  23.119
 768.07  29.768  23.150
 768.57  29.877  23.119
 769.07  29.877  23.119
 769.57  29.877  23.119
 770.07  29.768  23.088
 770.57  29.768  23.088
 771.07  29.985  23.088
 771.57  29.877  23.088
 772.07  29.877  23.150
 772.57  29.985  23.119
 773.07  29.985  23.088
 773.57  29.985  23.119
 774.07  29.660  23.119
 774.57  29.985  23.119
 775.07  29.985  23.119
 775.57  29.877  23.119
 776.07  29.985  23.088
 776.57  29.985  23.150
 777.07  29.985  23.119
 777.57  29.877  23.119
 778.07  29.985  23.150
 778.57  30.101  23.119
 779.07  30.101  23.119
 779.57  29.985  23.119
 780.07  29.985  23.119
 780.57  29.877  23.119
 781.07  29.985  23.119
 781.57  30.101  23.119
 782.07  30.101  23.119
 782.57  29.985  23.119
 783.07  29.985  23.119
 783.57  30.101  23.150
 784.07  29.985  23.150
 784.57  30.101  23.119
 785.07  30.101  23.181
 785.57  30.101  23.150
 786.07  29.877  23.119
 786.57  30.101  23.119
 787.07  29.985  23.119
 787.57  30.101  23.119
 788.07  30.101  23.150
 788.57  30.101  23.119
 789.07  29.877  23.119
 789.57  30.101  23.150
 790.07  29.985  23.088
 790.57  30.217  23.150
 791.07  30.101  23.150
 791.57  30.101  23.119
 792.07  30.101  23.119
 792.57  30.217  23.119
 793.07  30.217  23.088
 793.57  30.217  23.119
 794.07  30.101  23.119
 794.57  30.101  23.119
 795.07  30.217  23.150
 795.57  30.101  23.150
 796.07  30.101  23.119
 796.57  30.334  23.150
 797.07  30.217  23.119
 797.57  30.334  23.150
 798.07  30.101  23.150
 798.57  29.985  23.119
 799.07  29.660  23.119
 799.57  30.101  23.119
 800.07  30.217  23.119
 800.57  30.217  23.119
 801.07  30.217  23.088
 801.57  30.217  23.150
 802.07  30.217  23.150
 802.57  30.217  23.058
 803.07  30.217  23.150
 803.57  30.217  23.150
 804.07  30.217  23.150
 804.57  30.217  23.119
 805.07  30.334  23.150
 805.57  30.334  23.119
 806.07  30.217  23.150
 806.57  30.334  23.088
 807.07  30.217  23.119
 807.57  30.334  23.119
 808.07  30.217  23.150
 808.57  30.101  23.150
 809.07  30.217  23.119
 809.57  30.217  23.119
 810.07  30.217  23.119
 810.57  30.334  23.119
 811.07  30.217  23.119
 811.57  30.334  23.150
 812.07  30.217  23.119
 812.57  30.334  23.119
 813.07  30.334  23.150
 813.57  30.334  23.119
 814.07  30.217  23.150
 814.57  30.334  23.150
 815.07  30.334  23.119
 815.57  30.334  23.119
 816.07  30.334  23.119
 816.57  30.334  23.119
 817.07  30.334  23.119
 817.57  30.334  23.150
 818.07  30.334  23.150
 818.57  30.334  23.119
 819.07  30.451  23.119
 819.57  30.451  23.150
 820.07  30.101  23.119
 820.57  30.334  23.119
 821.07  30.217  23.181
 821.57  30.334  23.150
 822.07  30.334  23.150
 822.57  30.217  23.119
 823.07  30.334  23.119
 823.57  30.451  23.150
 824.07  30.334  23.119
 824.57  30.334  23.119
 825.07  30.334  23.150
 825.57  30.451  23.119
 826.07  30.334  23.119
 826.57  30.568  23.150
 827.07  30.451  23.119
 827.57  30.334  23.119
 828.07  30.451  23.181
 828.57  30.568  23.150
 829.07  30.451  23.150
 829.57  30.334  23.119
 830.07  30.451  23.181
 830.57  30.451  23.150
 831.07  30.568  23.150
 831.57  30.334  23.181
 832.07  30.451  23.088
 832.57  30.451  23.150
 833.07  30.451  23.212
 833.57  30.451  23.150
 834.07  30.568  23.119
 834.57  30.451  23.119
 835.07  30.451  23.150
 835.57  30.451  23.150
 836.07  30.451  23.150
 836.57  30.568  23.119
 837.07  30.568  23.119
 837.57  30.451  23.150
 838.07  30.568  23.150
 838.57  30.568  23.150
 839.07  30.334  23.181
 839.58  30.568  23.150
 840.08  30.568  23.150
 840.58  30.451  23.181
 841.08  30.568  23.150
 841.58  30.802  23.150
 842.08  30.451  23.150
 842.58  30.451  23.150
 843.08  30.568  23.150
 843.58  30.685  23.150
 844.08  30.685  23.150
 844.58  30.568  23.119
 845.08  30.568  23.181
 845.58  30.685  23.150
 846.08  30.451  23.181
 846.58  30.685  23.150
 847.08  30.451  23.088
 847.58  30.685  23.150
 848.08  30.568  23.119
 848.58  30.568  23.150
 849.08  30.568  23.150
 849.58  30.685  23.150
 850.08  30.685  23.150
 850.58  30.685  23.242
 851.08  30.568  23.150
 851.58  30.685  23.150
 852.08  30.685  23.119
 852.58  30.685  23.150
 853.08  30.568  23.181
 853.58  30.568  23.150
 854.08  30.802  23.150
 854.58  30.685  23.150
 855.08  30.685  23.150
 855.58  30.685  23.150
 856.08  30.685  23.150
 856.58  30.919  23.150
 857.08  30.685  23.150
 857.58  30.802  23.181
 858.08  30.685  23.119
 858.58  30.685  23.181
 859.08  30.685  23.150
 859.58  30.685  23.119
 860.08  30.685  23.150
 860.58  30.685  23.119
 861.08  30.451  23.150
 861.58  30.685  23.150
 862.08  30.685  23.150
 862.58  30.685  23.150
 863.08  30.568  23.181
 863.58  30.685  23.119
 864.08  30.685  23.181
 864.58  30.685  23.181
 865.08  30.802  23.150
 865.58  30.685  23.088
 866.08  30.802  23.150
 866.58  30.685  23.150
 867.08  30.685  23.150
 867.58  30.685  23.150
 868.08  30.802  23.150
 868.58  30.568  23.119
 869.08  30.685  23.150
 869.58  30.802  23.150
 870.08  30.802  23.150
 870.58  30.802  23.119
 871.08  30.685  23.119
 871.58  30.685  23.181
 872.08  30.802  23.150
 872.58  30.802  23.150
 873.08  30.802  23.181
 873.58  30.685  23.150
 874.08  30.685  23.150
 874.58  30.568  23.150
 875.08  30.802  23.150
 875.58  30.568  23.150
 876.08  30.802  23.181
 876.58  30.802  23.119
 877.08  30.685  23.150
 877.58  30.919  23.150
 878.08  30.685  23.181
 878.58  30.802  23.150
 879.08  30.685  23.181
 879.58  30.685  23.150
 880.08  30.685  23.150
 880.58  30.802  23.181
 881.08  30.802  23.150
 881.58  30.802  23.150
 882.08  30.802  23.150
 882.58  30.802  23.119
 883.08  30.802  23.150
 883.58  30.919  23.181
 884.08  30.685  23.150
 884.58  30.919  23.150
 885.08  30.802  23.150
 885.58  30.802  23.150
 886.08  30.919  23.181
 886.58  30.802  23.150
 887.08  30.802  23.150
 887.58  30.919  23.181
 888.08  30.802  23.150
 888.58  30.802  23.181
 889.08  30.802  23.150
 889.58  30.802  23.119
 890.08  30.919  23.181
 890.58  30.919  23.181
 891.08  30.919  23.212
 891.58  30.802  23.181
 892.08  30.802  23.181
 892.58  31.036  23.119
 893.08  31.036  23.150
 893.58  30.802  23.181
 894.08  30.919  23.119
 894.58  30.919  23.150
 895.08  30.919  23.150
 895.58  30.802  23.150
 896.08  31.152  23.150
 896.58  31.036  23.181
 897.08  31.036  23.150
 897.58  30.802  23.150
 898.08  30.919  23.150
 898.58  30.919  23.150
 899.08  30.919  23.181
 899.58  31.036  23.181
 900.08  30.919  23.150
 900.58  31.036  23.181
 901.08  31.036  23.181
 901.58  31.036  23.181
 902.08  31.036  23.181
 902.58  30.919  23.150
 903.08  31.036  23.181
 903.58  30.802  23.181
 904.08  31.036  23.181
 904.58  31.036  23.150
 905.08  31.036  23.150
 905.58  30.802  23.212
 906.08  31.036  23.181
 906.58  31.036  23.150
 907.08  31.036  23.181
 907.58  31.036  23.150
 908.08  31.036  23.181
 908.58  30.919  23.181
 909.08  30.919  23.150
 909.58  31.036  23.181
 910.08  30.919  23.150
 910.58  31.036  23.181
 911.08  31.152  23.181
 911.58  30.919  23.150
 912.08  31.152  23.150
 912.58  31.036  23.150
 913.08  31.152  23.181
 913.58  31.152  23.119
 914.08  31.152  23.181
 914.58  31.036  23.181
 915.08  31.152  23.150
 915.58  31.152  23.150
 916.08  31.152  23.181
 916.58  31.152  23.181
 917.08  31.152  23.181
 917.58  31.152  23.181
 918.08  31.036  23.181
 918.58  31.036  23.181
 919.08  31.152  23.181
 919.58  31.152  23.181
 920.08  31.269  23.181
 920.58  31.152  23.150
 921.08  31.152  23.150
 921.58  31.269  23.181
 922.08  31.152  23.181
 922.58  31.269  23.181
 923.08  31.152  23.181
 923.58  31.036  23.212
 924.08  31.386  23.181
 924.58  31.152  23.212
 925.08  31.152  23.150
 925.58  31.152  23.181
 926.08  31.152  23.181
 926.58  31.269  23.181
 927.08  31.269  23.181
 927.58  31.269  23.212
 928.08  31.152  23.212
 928.58  31.269  23.181
 929.08  31.152  23.181
 929.58  31.269  23.181
 930.08  31.269  23.181
 930.58  31.269  23.181
 931.08  31.152  23.150
 931.58  31.152  23.181
 932.08  31.152  23.181
 932.58  31.386  23.150
 933.08  31.269  23.181
 933.58  31.269  23.181
 934.08  31.386  23.212
 934.58  31.269  23.181
 935.08  31.269  23.212
 935.58  31.269  23.212
 936.08  31.269  23.181
 936.58  31.036  23.181
 937.08  31.269  23.181
 937.58  31.269  23.212
 938.08  31.269  23.212
 938.58  31.386  23.181
 939.08  31.386  23.150
 939.58  31.386  23.212
 940.08  31.269  23.212
 940.58  31.152  23.212
 941.08  31.269  23.181
 941.58  31.386  23.150
 942.08  31.503  23.150
 942.58  31.269  23.181
 943.08  31.386  23.150
 943.58  31.269  23.181
 944.08  31.386  23.212
 944.58  31.269  23.181
 945.08  31.269  23.150
 945.58  31.386  23.212
 946.08  31.386  23.212
 946.58  31.386  23.181
 947.08  31.269  23.150
 947.58  31.269  23.181
 948.08  31.269  23.181
 948.58  31.503  23.150
 949.08  31.386  23.181
 949.58  31.386  23.212
 950.08  31.269  23.181
 950.58  31.269  23.181
 951.08  31.386  23.181
 951.58  31.269  23.212
 952.08  31.386  23.181
 952.58  31.386  23.212
 953.09  31.386  23.181
 953.59  31.503  23.150
 954.09  31.503  23.181
 954.59  31.503  23.242
 955.09  31.386  23.181
 955.59  31.503  23.181
 956.09  31.386  23.212
 956.59  31.269  23.181
 957.09  31.503  23.212
 957.59  31.386  23.150
 958.09  31.503  23.181
 958.59  31.386  23.212
 959.09  31.386  23.181
 959.59  31.269  23.212
 960.09  31.269  23.181
 960.59  31.386  23.181
 961.09  31.503  23.181
 961.59  31.503  23.181
 962.09  31.503  23.212
 962.59  31.386  23.212
 963.09  31.386  23.181
 963.59  31.503  23.119
 964.09  31.503  23.181
 964.59  31.503  23.242
 965.09  31.503  23.212
 965.59  31.386  23.181
 966.09  31.620  23.212
 966.59  31.386  23.212
 967.09  31.386  23.150
 967.59  31.503  23.212
 968.09  31.620  23.181
 968.59  31.386  23.181
 969.09  31.503  23.181
 969.59  31.503  23.212
 970.09  31.386  23.181
 970.59  31.620  23.150
 971.09  31.503  23.212
 971.59  31.503  23.242
 972.09  31.620  23.181
 972.59  31.503  23.181
 973.09  31.620  23.212
 973.59  31.737  23.181
 974.09  31.269  23.181
 974.59  31.503  23.181
 975.09  31.620  23.212
 975.59  31.503  23.181
 976.09  31.620  23.181
 976.59  31.503  23.212
 977.09  31.620  23.212
 977.59  31.503  23.181
 978.09  31.620  23.212
 978.59  31.386  23.212
 979.09  31.620  23.212
 979.59  31.269  23.181
 980.09  31.503  23.181
 980.59  31.503  23.181
 981.09  31.503  23.181
 981.59  31.620  23.181
 982.09  31.620  23.181
 982.59  31.620  23.212
 983.09  31.620  23.212
 983.59  31.620  23.242
 984.09  31.620  23.181
 984.59  31.503  23.212
 985.09  31.620  23.212
 985.59  31.620  23.181
 986.09  31.737  23.212
 986.59  31.620  23.181
 987.09  31.620  23.212
 987.59  31.503  23.212
 988.09  31.620  23.181
 988.59  31.737  23.181
 989.09  31.620  23.212
 989.59  31.620  23.181
 990.09  31.620  23.181
 990.59  31.620  23.212
 991.09  31.503  23.212
 991.59  31.737  23.212
 992.09  31.620  23.212
 992.59  31.620  23.212
 993.09  31.620  23.181
 993.59  31.503  23.212
 994.09  31.737  23.212
 994.59  31.620  23.212
 995.09  31.737  23.242
 995.59  31.737  23.212
 996.09  31.620  23.212
 996.59  31.854  23.212
 997.09  31.737  23.212
 997.59  31.737  23.212
 998.09  31.620  23.212
 998.59  31.620  23.181
 999.09  31.737  23.212
 999.59  31.737  23.212
1000.09  31.620  23.212
1000.59  31.737  23.181
1001.09  31.620  23.212
1001.59  31.737  23.181
1002.09  31.854  23.242
1002.59  31.854  23.212
1003.09  31.737  23.212
1003.59  31.737  23.242
1004.09  31.620  23.150
1004.59  31.620  23.212
1005.09  31.854  23.212
1005.59  31.737  23.212
1006.09  31.854  23.242
1006.59  31.620  23.181
1007.09  31.737  23.212
1007.59  31.620  23.242
1008.09  31.737  23.242
1008.59  31.854  23.212
1009.09  31.620  23.212
1009.59  31.737  23.212
1010.09  31.854  23.212
1010.59  31.854  23.212
1011.09  31.737  23.242
1011.59  31.737  23.242
1012.09  32.204  23.242
1012.59  31.737  23.212
1013.09  31.854  23.212
1013.59  31.854  23.242
1014.09  31.854  23.212
1014.59  31.854  23.212
1015.09  31.854  23.212
1015.59  31.854  23.242
1016.09  31.854  23.212
1016.59  31.737  23.212
1017.09  31.620  23.242
1017.59  31.854  23.242
1018.09  31.854  23.181
1018.59  31.737  23.242
1019.09  31.854  23.212
1019.59  31.971  23.212
1020.09  31.854  23.242
1020.59  31.854  23.212
1021.09  31.971  23.242
1021.59  31.737  23.212
1022.09  31.971  23.212
1022.59  31.854  23.212
1023.09  31.854  23.273
1023.59  31.854  23.242
1024.09  31.971  23.181
1024.59  31.854  23.212
1025.09  31.971  23.242
1025.59  31.971  23.212
1026.09  31.971  23.242
1026.59  31.971  23.212
1027.09  31.854  23.273
1027.59  31.854  23.212
1028.09  31.971  23.242
1028.59  31.971  23.242
1029.09  31.971  23.212
1029.59  31.854  23.212
1030.09  31.971  23.242
1030.59  31.971  23.181
1031.09  31.854  23.242
1031.59  31.971  23.273
1032.09  31.854  23.242
1032.59  31.971  23.212
1033.09  31.971  23.242
1033.59  31.854  23.273
1034.09  32.204  23.242
1034.59  31.854  23.212
1035.09  31.971  23.242
1035.59  31.971  23.212
1036.09  31.971  23.242
1036.59  31.971  23.212
1037.09  31.971  23.242
1037.59  31.971  23.273
1038.09  31.971  23.212
1038.59  31.971  23.212
1039.09  31.971  23.242
1039.59  31.971  23.212
1040.09  32.087  23.212
1040.59  31.971  23.242
1041.09  31.971  23.242
1041.59  31.971  23.242
1042.09  31.971  23.242
1042.59  31.971  23.242
1043.09  31.971  23.242
1043.59  32.087  23.212
1044.09  31.854  23.242
1044.59  31.971  23.273
1045.09  32.087  23.242
1045.59  32.204  23.212
1046.09  31.971  23.242
1046.59  31.971  23.273
1047.09  32.087  23.242
1047.59  32.087  23.212
1048.09  32.204  23.273
1048.59  32.087  23.242
1049.09  31.971  23.273
1049.59  32.087  23.242
1050.09  32.204  23.242
1050.59  32.087  23.242
1051.09  31.971  23.273
1051.59  32.087  23.242
1052.09  32.087  23.242
1052.59  32.204  23.242
1053.09  31.971  23.242
1053.59  32.321  23.212
1054.09  31.971  23.242
1054.59  32.087  23.242
1055.09  32.087  23.242
1055.59  32.087  23.242
1056.09  32.087  23.273
1056.59  32.087  23.242
1057.09  31.854  23.242
1057.59  32.087  23.242
1058.09  32.204  23.242
1058.59  32.087  23.212
1059.09  32.204  23.242
1059.59  31.854  23.242
1060.09  32.087  23.212
1060.59  32.087  23.212
1061.09  32.087  23.242
1061.59  32.204  23.242
1062.09  32.087  23.242
1062.59  32.204  23.242
1063.09  31.971  23.242
1063.59  32.321  23.242
1064.09  32.204  23.242
1064.59  32.204  23.242
1065.09  32.321  23.242
1065.59  32.087  23.242
1066.10  32.087  23.242
1066.60  32.204  23.242
1067.10  32.204  23.242
1067.60  31.971  23.212
1068.10  32.087  23.242
1068.60  32.204  23.242
1069.10  32.087  23.242
1069.60  32.204  23.242
1070.10  32.087  23.212
1070.60  32.087  23.273
1071.10  32.204  23.242
1071.60  32.204  23.242
1072.10  32.087  23.242
1072.60  32.204  23.242
1073.10  32.204  23.212
1073.60  32.087  23.242
1074.10  32.204  23.242
1074.60  32.204  23.242
1075.10  32.204  23.212
1075.60  32.087  23.242
1076.10  32.321  23.242
1076.60  32.321  23.273
1077.10  32.204  23.273
1077.60  32.321  23.273
1078.10  32.204  23.242
1078.60  32.204  23.242
1079.10  32.087  23.242
1079.60  32.204  23.242
1080.10  32.204  23.212
1080.60  32.321  23.304
1081.10  32.321  23.242
1081.60  31.854  23.242
1082.10  32.321  23.242
1082.60  32.204  23.212
1083.10  31.971  23.242
1083.60  32.204  23.273
1084.10  32.321  23.242
1084.60  32.321  23.242
1085.10  32.321  23.273
1085.60  32.204  23.242
1086.10  32.321  23.242
1086.60  32.321  23.273
1087.10  32.204  23.242
1087.60  32.321  23.273
1088.10  32.204  23.242
1088.60  32.204  23.242
1089.10  32.204  23.304
1089.60  32.321  23.273
1090.10  32.321  23.273
1090.60  32.204  23.242
1091.10  32.321  23.212
1091.60  32.204  23.242
1092.10  32.438  23.212
1092.60  32.555  23.242
1093.10  32.321  23.242
1093.60  32.321  23.242
1094.10  32.321  23.242
1094.60  32.321  23.273
1095.10  32.321  23.242
1095.60  32.321  23.242
1096.10  32.204  23.212
1096.60  32.321  23.242
1097.10  32.321  23.242
1097.60  32.321  23.242
1098.10  32.438  23.212
1098.60  32.321  23.273
1099.10  32.204  23.242
1099.60  32.321  23.242
1100.10  32.321  23.304
1100.60  32.321  23.242
1101.10  32.321  23.242
1101.60  32.438  23.273
1102.10  32.555  23.212
1102.60  32.321  23.242
1103.10  32.438  23.242
1103.60  32.438  23.242
1104.10  32.321  23.273
1104.60  32.438  23.242
1105.10  32.438  23.273
1105.60  32.438  23.242
1106.10  32.321  23.242
1106.60  32.321  23.242
1107.10  32.321  23.242
1107.60  32.321  23.212
1108.10  32.438  23.273
1108.60  32.321  23.273
1109.10  32.321  23.242
1109.60  32.438  23.273
1110.10  32.321  23.273
1110.60  32.438  23.273
1111.10  32.438  23.242
1111.60  32.438  23.273
1112.10  32.321  23.242
1112.60  32.321  23.273
1113.10  32.438  23.273
1113.60  32.438  23.242
1114.10  32.438  23.273
1114.60  32.438  23.273
1115.10  32.321  23.273
1115.60  32.438  23.242
1116.10  32.438  23.273
1116.60  32.555  23.242
1117.10  32.555  23.273
1117.60  32.555  23.273
1118.10  32.438  23.242
1118.60  32.321  23.242
1119.10  32.555  23.273
1119.60  32.555  23.304
1120.10  32.438  23.273
1120.60  32.438  23.212
1121.10  32.438  23.273
1121.60  32.438  23.304
1122.10  32.438  23.242
1122.60  32.555  23.273
1123.10  32.438  23.273
1123.60  32.438  23.242
1124.10  32.555  23.304
1124.60  32.555  23.273
1125.10  32.438  23.273
1125.60  32.555  23.242
1126.10  32.438  23.212
1126.60  32.438  23.273
1127.10  32.438  23.273
1127.60  32.555  23.304
1128.10  32.438  23.273
1128.60  32.438  23.273
1129.10  32.555  23.273
1129.60  32.555  23.304
1130.10  32.555  23.273
1130.60  32.321  23.242
1131.10  32.555  23.273
1131.60  32.672  23.273
1132.10  32.555  23.273
1132.60  32.555  23.273
1133.10  32.438  23.273
1133.60  32.555  23.273
1134.10  32.672  23.273
1134.60  32.555  23.273
1135.10  32.438  23.212
1135.60  32.555  23.273
1136.10  32.555  23.273
1136.60  32.672  23.273
1137.10  32.555  23.273
1137.60  32.555  23.273
1138.10  32.438  23.273
1138.60  32.555  23.273
1139.10  32.555  23.242
1139.60  32.555  23.273
1140.10  32.555  23.273
1140.60  32.555  23.273
1141.10  32.555  23.273
1141.60  32.555  23.273
1142.10  32.555  23.273
1142.60  32.555  23.273
1143.10  32.672  23.242
1143.60  32.555  23.242
1144.10  32.555  23.273
1144.60  32.555  23.273
1145.10  32.321  23.242
1145.60  32.672  23.335
1146.10  32.672  23.273
1146.60  32.555  23.273
1147.10  32.672  23.273
1147.60  32.438  23.242
1148.10  32.438  23.242
1148.60  32.555  23.304
1149.10  32.672  23.273
1149.60  32.555  23.242
1150.10  32.672  23.273
1150.60  32.672  23.335
1151.10  32.672  23.273
1151.60  32.789  23.273
1152.10  32.555  23.304
1152.60  32.789  23.273
1153.10  32.789  23.273
1153.60  32.672  23.273
1154.10  32.555  23.304
1154.60  32.789  23.242
1155.10  32.672  23.273
1155.60  32.672  23.273
1156.10  32.672  23.273
1156.60  32.672  23.273
1157.10  32.555  23.273
1157.60  32.672  23.273
1158.10  32.672  23.273
1158.60  32.672  23.304
1159.10  32.789  23.273
1159.60  32.672  23.304
1160.10  32.672  23.273
1160.60  32.672  23.273
1161.10  32.672  23.212
1161.60  32.672  23.273
1162.10  32.672  23.304
1162.60  32.672  23.273
1163.10  32.672  23.273
1163.60  32.672  23.273
1164.10  32.672  23.304
1164.60  32.672  23.304
1165.10  32.672  23.273
1165.60  32.672  23.304
1166.10  32.789  23.242
1166.60  32.789  23.273
1167.10  32.672  23.273
1167.60  32.789  23.304
1168.10  32.672  23.273
1168.60  32.906  23.304
1169.10  32.789  23.273
1169.60  32.789  23.304
1170.10  32.672  23.304
1170.60  32.672  23.273
1171.10  32.672  23.304
1171.60  32.789  23.273
1172.10  32.672  23.304
1172.60  32.789  23.273
1173.10  32.672  23.304
1173.60  32.906  23.304
1174.10  32.672  23.273
1174.60  32.789  23.273
1175.10  32.789  23.273
1175.60  32.789  23.304
1176.10  32.789  23.304
1176.60  32.672  23.304
1177.10  33.022  23.273
1177.60  32.789  23.273
1178.10  32.789  23.304
1178.60  32.789  23.273
1179.11  32.789  23.335
1179.61  32.906  23.212
1180.11  32.906  23.273
1180.61  32.906  23.304
1181.11  32.906  23.273
1181.61  32.789  23.304
1182.11  32.789  23.304
1182.61  32.789  23.304
1183.11  32.906  23.242
1183.61  32.789  23.273
1184.11  32.789  23.335
1184.61  32.789  23.304
1185.11  32.789  23.273
1185.61  32.906  23.273
1186.11  32.789  23.304
1186.61  32.906  23.273
1187.11  32.906  23.304
1187.61  32.789  23.273
1188.11  33.022  23.304
1188.61  32.789  23.304
1189.11  32.789  23.273
1189.61  32.789  23.304
1190.11  32.906  23.304
1190.61  32.906  23.273
1191.11  32.789  23.273
1191.61  32.789  23.304
1192.11  32.906  23.304
1192.61  32.906  23.273
1193.11  32.906  23.335
1193.61  32.906  23.335
1194.11  32.906  23.304
1194.61  32.906  23.304
1195.11  32.906  23.304
1195.61  33.139  23.273
1196.11  32.789  23.304
1196.61  32.906  23.273
1197.11  32.906  23.304
1197.61  32.906  23.304
1198.11  33.022  23.304
1198.61  33.022  23.273
1199.11  32.906  23.304
1199.61  32.906  23.304
1200.11  32.789  23.304
1200.61  32.906  23.304
1201.11  32.906  23.304
1201.61  33.022  23.304
1202.11  32.906  23.304
1202.61  33.022  23.242
1203.11  32.789  23.304
1203.61  32.906  23.304
1204.11  32.906  23.304
1204.61  32.906  23.273
1205.11  32.906  23.304
1205.61  32.906  23.304
1206.11  32.906  23.304
1206.61  32.789  23.335
1207.11  32.789  23.273
1207.61  32.789  23.304
1208.11  32.906  23.304
1208.61  32.906  23.273
1209.11  33.022  23.304
1209.61  32.906  23.335
1210.11  32.906  23.304
1210.61  32.906  23.304
1211.11  32.906  23.335
1211.61  32.906  23.304
1212.11  33.022  23.335
1212.61  32.906  23.304
1213.11  33.022  23.273
1213.61  33.022  23.304
1214.11  33.022  23.304
1214.61  32.906  23.304
1215.11  33.022  23.273
1215.61  33.022  23.304
1216.11  33.022  23.304
1216.61  33.139  23.335
1217.11  32.906  23.304
1217.61  33.022  23.335
1218.11  33.022  23.304
1218.61  33.139  23.304
1219.11  33.022  23.304
1219.61  33.022  23.273
1220.11  32.906  23.273
1220.61  33.022  23.335
1221.11  33.139  23.335
1221.61  32.906  23.304
1222.11  33.022  23.304
1222.61  33.139  23.304
1223.11  32.906  23.304
1223.61  32.789  23.304
1224.11  33.139  23.304
1224.61  33.022  23.273
1225.11  32.906  23.273
1225.61  33.022  23.304
1226.11  32.906  23.273
1226.61  32.906  23.273
1227.11  33.022  23.273
1227.61  33.022  23.304
1228.11  33.022  23.304
1228.61  33.022  23.273
1229.11  33.256  23.273
1229.61  33.022  23.335
1230.11  33.022  23.304
1230.61  33.022  23.273
1231.11  33.022  23.304
1231.61  33.139  23.304
1232.11  32.906  23.304
1232.61  33.022  23.304
1233.11  32.906  23.335
1233.61  32.906  23.304
1234.11  33.139  23.304
1234.61  33.022  23.304
1235.11  33.139  23.304
1235.61  33.022  23.273
1236.11  33.139  23.304
1236.61  33.022  23.335
1237.11  33.139  23.335
1237.61  32.906  23.335
1238.11  33.139  23.304
1238.61  33.022  23.273
1239.11  33.022  23.304
1239.61  33.139  23.366
1240.11  33.139  23.335
1240.61  33.022  23.304
1241.11  33.139  23.304
1241.61  33.256  23.304
1242.11  33.022  23.304
1242.61  33.022  23.273
1243.11  33.139  23.273
1243.61  33.139  23.304
1244.11  33.022  23.304
1244.61  33.139  23.304
1245.11  33.139  23.304
1245.61  33.139  23.304
1246.11  33.022  23.304
1246.61  33.256  23.242
1247.11  33.139  23.335
1247.61  33.256  23.304
1248.11  33.022  23.242
1248.61  33.139  23.304
1249.11  33.139  23.304
1249.61  33.139  23.304
1250.11  33.022  23.304
1250.61  33.139  23.335
1251.11  33.139  23.335
1251.61  33.373  23.304
1252.11  33.256  23.335
1252.61  33.139  23.304
1253.11  33.139  23.335
1253.61  33.139  23.304
1254.11  33.139  23.304
1254.61  33.256  23.366
1255.11  33.256  23.304
1255.61  33.256  23.335
1256.11  33.139  23.304
1256.61  33.256  23.304
1257.11  33.373  23.304
1257.61  33.139  23.335
1258.11  33.256  23.304
1258.61  33.139  23.335
1259.11  33.256  23.335
1259.61  33.490  23.335
1260.11  33.256  23.335
1260.61  33.256  23.335
1261.11  33.490  23.304
1261.61  33.256  23.335
1262.11  33.256  23.335
1262.61  33.139  23.304
1263.11  33.139  23.335
1263.61  33.256  23.304
1264.11  33.373  23.335
1264.61  33.256  23.335
1265.11  33.373  23.335
1265.61  33.256  23.335
1266.11  33.373  23.304
1266.61  33.373  23.335
1267.11  33.256  23.304
1267.61  33.256  23.304
1268.11  33.256  23.304
1268.61  33.139  23.335
1269.11  33.373  23.335
1269.61  33.373  23.335
1270.11  33.256  23.335
1270.61  33.256  23.366
1271.11  33.373  23.335
1271.61  33.256  23.304
1272.11  33.256  23.304
1272.61  33.256  23.335
1273.11  33.256  23.335
1273.61  33.373  23.335
1274.11  33.256  23.304
1274.61  33.139  23.335
1275.11  33.373  23.335
1275.61  33.256  23.335
1276.11  33.256  23.335
1276.61  33.256  23.304
1277.11  33.256  23.335
1277.61  33.373  23.304
1278.11  33.256  23.304
1278.61  33.373  23.335
1279.11  33.373  23.273
1279.61  33.256  23.335
1280.11  33.139  23.304
1280.61  33.256  23.335
1281.11  33.373  23.335
1281.61  33.373  23.273
1282.11  33.256  23.304
1282.61  33.256  23.335
1283.11  33.373  23.335
1283.61  33.373  23.335
1284.11  33.373  23.335
1284.61  33.256  23.335
1285.11  33.373  23.335
1285.61  33.139  23.335
1286.11  33.373  23.335
1286.61  33.490  23.304
1287.11  33.256  23.335
1287.61  33.256  23.304
1288.11  33.373  23.304
1288.61  33.373  23.335
1289.11  33.373  23.335
1289.61  33.256  23.335
1290.11  33.256  23.335
1290.61  33.256  23.335
1291.11  33.373  23.304
1291.61  33.373  23.335
1292.11  33.490  23.335
1292.62  33.256  23.304
1293.12  33.490  23.335
1293.62  33.373  23.335
1294.12  33.373  23.335
1294.62  33.373  23.335
1295.12  33.373  23.335
1295.62  33.256  23.366
1296.12  33.373  23.335
1296.62  33.373  23.304
1297.12  33.373  23.366
1297.62  33.490  23.335
1298.12  33.373  23.335
1298.62  33.373  23.335
1299.12  33.373  23.335
1299.62  33.373  23.304
1300.12  33.373  23.335
1300.62  33.373  23.366
1301.12  33.373  23.366
1301.62  33.373  23.366
1302.12  33.490  23.366
1302.62  33.256  23.366
1303.12  33.373  23.335
1303.62  33.490  23.366
1304.12  33.373  23.366
1304.62  33.373  23.335
1305.12  33.373  23.335
1305.62  33.373  23.335
1306.12  33.490  23.366
1306.62  33.490  23.335
1307.12  33.490  23.335
1307.62  33.373  23.366
1308.12  33.490  23.335
1308.62  33.373  23.335
1309.12  33.490  23.366
1309.62  33.490  23.335
1310.12  33.490  23.335
1310.62  33.373  23.335
1311.12  33.490  23.335
1311.62  33.490  23.335
1312.12  33.373  23.304
1312.62  33.373  23.273
1313.12  33.607  23.335
1313.62  33.373  23.335
1314.12  33.607  23.335
1314.62  33.490  23.366
1315.12  33.490  23.366
1315.62  33.373  23.335
1316.12  33.490  23.335
1316.62  33.490  23.366
1317.12  33.490  23.366
1317.62  33.490  23.335
1318.12  33.607  23.366
1318.62  33.490  23.304
1319.12  33.373  23.335
1319.62  33.373  23.335
1320.12  33.490  23.335
1320.62  33.373  23.335
1321.12  33.490  23.304
1321.62  33.490  23.273
1322.12  33.607  23.366
1322.62  33.490  23.304
1323.12  33.490  23.304
1323.62  33.490  23.396
1324.12  33.490  23.335
1324.62  33.490  23.366
1325.12  33.490  23.304
1325.62  33.490  23.427
1326.12  33.607  23.335
1326.62  33.607  23.366
1327.12  33.490  23.335
1327.62  33.490  23.335
1328.12  33.490  23.366
1328.62  33.607  23.366
1329.12  33.490  23.335
1329.62  33.607  23.366
1330.12  33.490  23.366
1330.62  33.490  23.335
1331.12  33.490  23.335
1331.62  33.607  23.304
1332.12  33.724  23.304
1332.62  33.490  23.335
1333.12  33.607  23.366
1333.62  33.490  23.335
1334.12  33.607  23.304
1334.62  33.607  23.366
1335.12  33.724  23.366
1335.62  33.607  23.366
1336.12  33.724  23.335
1336.62  33.724  23.304
1337.12  33.607  23.335
1337.62  33.607  23.366
1338.12  33.607  23.335
1338.62  33.490  23.366
1339.12  33.490  23.366
1339.62  33.724  23.366
1340.12  33.607  23.366
1340.62  33.490  23.366
1341.12  33.607  23.304
1341.62  33.607  23.366
1342.12  33.373  23.366
1342.62  33.490  23.335
1343.12  33.490  23.335
1343.62  33.490  23.366
1344.12  33.607  23.366
1344.62  33.607  23.396
1345.12  33.607  23.366
1345.62  33.607  23.335
1346.12  33.607  23.366
1346.62  33.607  23.304
1347.12  33.607  23.366
1347.62  33.607  23.366
1348.12  33.490  23.335
1348.62  33.724  23.335
1349.12  33.607  23.366
1349.62  33.724  23.335
1350.12  33.724  23.366
1350.62  33.607  23.366
1351.12  33.607  23.335
1351.62  33.490  23.396
1352.12  33.607  23.366
1352.62  33.724  23.366
1353.12  33.724  23.366
1353.62  33.607  23.335
1354.12  33.724  23.366
1354.62  33.724  23.366
1355.12  33.607  23.335
1355.62  33.607  23.335
1356.12  33.607  23.335
1356.62  33.607  23.366
1357.12  33.724  23.366
1357.62  33.841  23.335
1358.12  33.607  23.366
1358.62  33.607  23.366
1359.12  33.607  23.366
1359.62  33.724  23.396
1360.12  33.490  23.335
1360.62  33.607  23.335
1361.12  33.724  23.366
1361.62  33.724  23.366
1362.12  33.607  23.366
1362.62  33.607  23.366
1363.12  33.607  23.366
1363.62  33.490  23.304
1364.12  33.724  23.366
1364.62  33.607  23.335
1365.12  33.724  23.396
1365.62  33.607  23.366
1366.12  33.607  23.304
1366.62  33.724  23.335
1367.12  33.724  23.366
1367.62  33.607  23.396
1368.12  33.724  23.366
1368.62  33.607  23.366
1369.12  33.724  23.366
1369.62  33.841  23.366
1370.12  33.724  23.366
1370.62  33.724  23.396
1371.12  33.724  23.366
1371.62  33.841  23.366
1372.12  33.724  23.366
1372.62  33.724  23.366
1373.12  33.724  23.366
1373.62  33.724  23.366
1374.12  33.607  23.366
1374.62  33.724  23.335
1375.12  33.724  23.366
1375.62  33.724  23.396
1376.12  33.957  23.366
1376.62  33.841  23.366
1377.12  33.957  23.335
1377.62  33.841  23.366
1378.12  33.607  23.366
1378.62  33.724  23.304
1379.12  33.841  23.366
1379.62  33.724  23.335
1380.12  33.724  23.366
1380.62  33.957  23.366
1381.12  33.724  23.396
1381.62  33.724  23.396
1382.12  33.724  23.396
1382.62  33.724  23.366
1383.12  33.841  23.366
1383.62  33.724  23.427
1384.12  33.724  23.335
1384.62  33.724  23.366
1385.12  33.724  23.366
1385.62  33.724  23.366
1386.12  33.957  23.366
1386.62  33.607  23.366
1387.12  33.724  23.335
1387.62  33.724  23.366
1388.12  33.724  23.366
1388.62  33.724  23.366
1389.12  33.841  23.366
1389.62  33.841  23.366
1390.12  33.957  23.396
1390.62  33.841  23.366
1391.12  33.841  23.396
1391.62  33.841  23.335
1392.12  33.724  23.366
1392.62  33.841  23.366
1393.12  33.841  23.366
1393.62  33.724  23.366
1394.12  33.841  23.366
1394.62  33.724  23.304
1395.12  33.841  23.396
1395.62  33.841  23.366
1396.12  33.841  23.366
1396.62  33.724  23.366
1397.12  33.841  23.396
1397.62  33.957  23.366
1398.12  33.957  23.366
1398.62  33.724  23.427
1399.12  33.957  23.366
1399.62  33.841  23.366
1400.12  33.841  23.396
1400.62  33.841  23.396
1401.12  33.957  23.396
1401.62  33.724  23.366
1402.12  33.957  23.335
1402.62  33.957  23.396
1403.12  33.957  23.396
1403.62  33.841  23.366
1404.12  33.841  23.396
1404.62  33.957  23.396
1405.12  33.957  23.366
1405.62  33.841  23.396
1406.12  33.724  23.396
1406.62  33.841  23.366
1407.12  33.957  23.366
1407.62  33.841  23.366
1408.12  33.841  23.366
1408.62  33.957  23.396
1409.12  33.724  23.396
1409.62  33.841  23.396
1410.12  33.957  23.366
1410.62  33.841  23.396
1411.12  34.074  23.396
1411.62  33.957  23.396
1412.12  33.841  23.427
1412.62  33.957  23.396
1413.12  34.074  23.427
1413.62  33.841  23.396
1414.12  34.074  23.396
1414.62  33.841  23.427
1415.12  33.841  23.366
1415.62  33.841  23.396
1416.12  33.841  23.366
1416.63  34.074  23.366
1417.13  33.957  23.366
1417.63  33.841  23.366
1418.13  33.957  23.366
1418.63  33.957  23.396
1419.13  33.957  23.396
1419.63  33.957  23.366
1420.13  33.957  23.396
1420.63  33.957  23.427
1421.13  33.957  23.396
1421.63  34.191  23.396
1422.13  34.074  23.366
1422.63  33.841  23.396
1423.13  34.074  23.396
1423.63  33.957  23.396
1424.13  33.957  23.366
1424.63  33.957  23.396
1425.13  34.074  23.366
1425.63  33.841  23.396
1426.13  34.074  23.396
1426.63  34.074  23.396
1427.13  33.957  23.366
1427.63  34.074  23.366
1428.13  34.074  23.396
1428.63  33.957  23.366
1429.13  34.191  23.396
1429.63  33.957  23.396
1430.13  33.957  23.366
1430.63  33.724  23.396
1431.13  33.957  23.396
1431.63  33.957  23.396
1432.13  33.957  23.366
1432.63  34.074  23.335
1433.13  33.957  23.396
1433.63  33.957  23.396
1434.13  33.957  23.366
1434.63  33.957  23.366
1435.13  33.957  23.396
1435.63  34.191  23.396
1436.13  33.957  23.366
1436.63  33.957  23.396
1437.13  34.074  23.396
1437.63  34.074  23.396
1438.13  33.957  23.366
1438.63  33.957  23.366
1439.13  34.074  23.366
1439.63  33.957  23.366
1440.13  34.191  23.366
1440.63  33.957  23.366
1441.13  33.957  23.396
1441.63  33.957  23.396
1442.13  34.191  23.427
1442.63  33.957  23.366
1443.13  33.957  23.427
1443.63  33.957  23.396
1444.13  33.957  23.366
1444.63  34.074  23.427
1445.13  34.074  23.396
1445.63  34.074  23.366
1446.13  33.957  23.366
1446.63  33.957  23.396
1447.13  34.074  23.396
1447.63  34.074  23.366
1448.13  33.957  23.335
1448.63  33.957  23.396
1449.13  33.957  23.396
1449.63  34.074  23.366
1450.13  33.957  23.396
1450.63  34.074  23.396
1451.13  34.074  23.396
1451.63  34.074  23.366
1452.13  34.074  23.396
1452.63  33.957  23.427
1453.13  34.074  23.427
1453.63  34.074  23.396
1454.13  33.957  23.396
1454.63  33.841  23.396
1455.13  34.074  23.396
1455.63  34.074  23.396
1456.13  34.191  23.366
1456.63  34.074  23.427
1457.13  33.957  23.396
1457.63  34.191  23.335
1458.13  34.074  23.396
1458.63  33.957  23.396
1459.13  34.074  23.396
1459.63  34.074  23.396
1460.13  34.191  23.396
1460.63  34.074  23.427
1461.13  34.191  23.396
1461.63  34.074  23.396
1462.13  34.074  23.396
1462.63  34.191  23.427
1463.13  34.074  23.396
1463.63  34.191  23.335
1464.13  34.074  23.396
1464.63  34.074  23.396
1465.13  34.191  23.396
1465.63  33.957  23.366
1466.13  34.191  23.366
1466.63  34.191  23.396
1467.13  34.074  23.396
1467.63  34.074  23.396
1468.13  34.191  23.427
1468.63  34.074  23.366
1469.13  34.191  23.396
1469.63  34.074  23.366
1470.13  34.074  23.396
1470.63  34.074  23.396
1471.13  34.308  23.396
1471.63  34.191  23.427
1472.13  33.957  23.396
1472.63  34.074  23.427
1473.13  34.191  23.396
1473.63  34.074  23.427
1474.13  34.191  23.396
1474.63  34.074  23.427
1475.13  33.957  23.458
1475.63  34.074  23.427
1476.13  34.191  23.366
1476.63  34.191  23.396
1477.13  34.191  23.366
1477.63  34.074  23.396
1478.13  34.191  23.396
1478.63  34.191  23.366
1479.13  34.191  23.396
1479.63  34.191  23.396
1480.13  34.074  23.366
1480.63  34.191  23.396
1481.13  34.074  23.396
1481.63  34.191  23.366
1482.13  34.191  23.427
1482.63  34.191  23.427
1483.13  34.191  23.396
1483.63  34.191  23.396
1484.13  34.074  23.427
1484.63  34.191  23.427
1485.13  34.191  23.366
1485.63  34.191  23.396
1486.13  34.074  23.427
1486.63  34.191  23.366
1487.13  34.191  23.396
1487.63  34.074  23.427
1488.13  34.191  23.396
1488.63  34.191  23.427
1489.13  34.191  23.427
1489.63  34.191  23.396
1490.13  34.191  23.427
1490.63  34.425  23.396
1491.13  34.308  23.427
1491.63  34.308  23.427
1492.13  34.425  23.366
1492.63  34.191  23.396
1493.13  34.191  23.427
1493.63  34.308  23.396
1494.13  34.191  23.427
1494.63  34.074  23.396
1495.13  34.308  23.427
1495.63  34.191  23.427
1496.13  34.308  23.427
1496.63  34.191  23.427
1497.13  34.308  23.366
1497.63  34.191  23.427
1498.13  34.308  23.458
1498.63  34.308  23.427
1499.13  34.191  23.458
1499.63  34.308  23.427
1500.13  34.308  23.396
1500.63  34.425  23.427
1501.13  34.191  23.458
1501.63  34.308  23.427
1502.13  34.191  23.427
1502.63  34.074  23.427
1503.13  34.191  23.427
1503.63  34.191  23.366
1504.13  34.308  23.427
1504.63  34.191  23.396
1505.13  34.308  23.396
1505.63  34.308  23.427
1506.13  34.425  23.396
1506.63  34.308  23.427
1507.13  34.308  23.427
1507.63  34.542  23.458
1508.13  34.308  23.396
1508.63  34.191  23.366
1509.13  34.308  23.427
1509.63  34.425  23.427
1510.13  34.308  23.427
1510.63  34.308  23.396
1511.13  34.308  23.396
1511.63  34.191  23.396
1512.13  34.308  23.458
1512.63  34.191  23.427
1513.13  34.308  23.458
1513.63  34.425  23.427
1514.13  34.308  23.427
1514.63  34.308  23.396
1515.13  34.308  23.458
1515.63  34.308  23.396
1516.13  34.425  23.427
1516.63  34.191  23.396
1517.13  34.191  23.427
1517.63  34.308  23.458
1518.13  34.308  23.396
1518.63  34.425  23.427
1519.13  34.308  23.427
1519.63  34.425  23.396
1520.13  34.308  23.396
1520.63  34.425  23.427
1521.13  34.308  23.396
1521.63  34.191  23.427
1522.13  34.308  23.366
1522.63  34.308  23.458
1523.13  34.308  23.396
1523.63  34.425  23.427
1524.13  34.308  23.366
1524.63  34.308  23.427
1525.13  34.425  23.427
1525.63  34.308  23.427
1526.13  34.425  23.427
1526.63  34.308  23.427
1527.13  34.425  23.458
1527.63  34.191  23.427
1528.13  34.308  23.366
1528.63  34.191  23.396
1529.13  34.425  23.427
1529.64  34.308  23.396
1530.14  34.308  23.427
1530.64  34.425  23.427
1531.14  34.425  23.427
1531.64  34.308  23.396
1532.14  34.308  23.427
1532.64  34.308  23.427
1533.14  34.425  23.427
1533.64  34.308  23.427
1534.14  34.425  23.427
1534.64  34.425  23.458
1535.14  34.542  23.427
1535.64  34.308  23.427
1536.14  34.425  23.489
1536.64  34.308  23.427
1537.14  34.542  23.427
1537.64  34.425  23.427
1538.14  34.425  23.458
1538.64  34.425  23.427
1539.14  34.776  23.427
1539.64  34.542  23.427
1540.14  34.425  23.427
1540.64  34.659  23.396
1541.14  34.425  23.427
1541.64  34.425  23.458
1542.14  34.425  23.427
1542.64  34.425  23.427
1543.14  34.425  23.427
1543.64  34.425  23.427
1544.14  34.425  23.427
1544.64  34.425  23.427
1545.14  34.425  23.458
1545.64  34.425  23.458
1546.14  34.425  23.427
1546.64  34.542  23.458
1547.14  34.308  23.489
1547.64  34.542  23.458
1548.14  34.542  23.458
1548.64  34.425  23.427
1549.14  34.425  23.427
1549.64  34.425  23.427
1550.14  34.425  23.458
1550.64  34.425  23.458
1551.14  34.425  23.427
1551.64  34.425  23.458
1552.14  34.425  23.427
1552.64  34.425  23.427
1553.14  34.425  23.427
1553.64  34.425  23.458
1554.14  34.542  23.458
1554.64  34.542  23.458
1555.14  34.425  23.427
1555.64  34.425  23.427
1556.14  34.425  23.427
1556.64  34.542  23.458
1557.14  34.542  23.427
1557.64  34.425  23.427
1558.14  34.542  23.427
1558.64  34.425  23.366
1559.14  34.542  23.427
1559.64  34.542  23.458
1560.14  34.425  23.427
1560.64  34.542  23.458
1561.14  34.425  23.458
1561.64  34.542  23.427
1562.14  34.542  23.458
1562.64  34.542  23.427
1563.14  34.425  23.427
1563.64  34.425  23.458
1564.14  34.425  23.427
1564.64  34.425  23.458
1565.14  34.542  23.458
1565.64  34.659  23.458
1566.14  34.542  23.427
1566.64  34.659  23.427
1567.14  34.308  23.458
1567.64  34.542  23.458
1568.14  34.425  23.427
1568.64  34.542  23.427
1569.14  34.542  23.458
1569.64  34.542  23.427
1570.14  34.542  23.427
1570.64  34.425  23.427
1571.14  34.542  23.458
1571.64  34.659  23.458
1572.14  34.659  23.458
1572.64  34.542  23.427
1573.14  34.542  23.427
1573.64  34.542  23.458
1574.14  34.425  23.427
1574.64  34.776  23.427
1575.14  34.542  23.458
1575.64  34.425  23.458
1576.14  34.542  23.427
1576.64  34.308  23.427
1577.14  34.542  23.427
1577.64  34.542  23.427
1578.14  34.542  23.458
1578.64  34.542  23.458
1579.14  34.542  23.458
1579.64  34.542  23.458
1580.14  34.308  23.458
1580.64  34.542  23.427
1581.14  34.542  23.396
1581.64  34.542  23.427
1582.14  34.308  23.458
1582.64  34.542  23.427
1583.14  34.542  23.427
1583.64  34.542  23.458
1584.14  34.542  23.458
1584.64  34.542  23.427
1585.14  34.542  23.458
1585.64  34.542  23.458
1586.14  34.542  23.458
1586.64  34.542  23.427
1587.14  34.542  23.427
1587.64  34.659  23.427
1588.14  34.542  23.427
1588.64  34.776  23.458
1589.14  34.542  23.489
1589.64  34.542  23.427
1590.14  34.659  23.458
1590.64  34.542  23.427
1591.14  34.659  23.458
1591.64  34.542  23.489
1592.14  34.542  23.489
1592.64  34.659  23.427
1593.14  34.425  23.458
1593.64  34.542  23.458
1594.14  34.659  23.458
1594.64  34.542  23.520
1595.14  34.776  23.427
1595.64  34.776  23.458
1596.14  34.659  23.489
1596.64  34.776  23.458
1597.14  34.659  23.458
1597.64  34.542  23.458
1598.14  34.542  23.427
1598.64  34.542  23.458
1599.14  34.659  23.458
1599.64  34.542  23.458
1600.14  34.659  23.458
1600.64  34.659  23.458
1601.14  34.542  23.489
1601.64  34.542  23.427
1602.14  34.542  23.489
1602.64  34.659  23.396
1603.14  34.659  23.458
1603.64  34.659  23.427
1604.14  34.542  23.427
1604.64  34.659  23.458
1605.14  34.659  23.458
1605.64  34.659  23.427
1606.14  34.659  23.458
1606.64  34.542  23.489
1607.14  34.659  23.458
1607.64  34.659  23.427
1608.14  34.776  23.458
1608.64  34.542  23.458
1609.14  34.542  23.458
1609.64  34.542  23.489
1610.14  34.659  23.427
1610.64  34.659  23.458
1611.14  34.659  23.458
1611.64  34.659  23.458
1612.14  34.659  23.458
1612.64  34.659  23.458
1613.14  34.659  23.458
1613.64  34.659  23.427
1614.14  34.776  23.427
1614.64  34.659  23.489
1615.14  34.659  23.489
1615.64  34.776  23.489
1616.14  34.659  23.458
1616.64  34.659  23.489
1617.14  34.659  23.458
1617.64  34.776  23.427
1618.14  34.659  23.458
1618.64  34.776  23.458
1619.14  34.659  23.458
1619.64  34.659  23.489
1620.14  34.892  23.458
1620.64  34.659  23.489
1621.14  34.659  23.458
1621.64  34.659  23.458
1622.14  34.542  23.458
1622.64  34.542  23.489
1623.14  34.659  23.458
1623.64  34.776  23.458
1624.14  34.659  23.458
1624.64  34.659  23.489
1625.14  34.659  23.458
1625.64  34.776  23.458
1626.14  34.892  23.489
1626.64  34.659  23.489
1627.14  34.659  23.489
1627.64  34.659  23.489
1628.14  34.776  23.458
1628.64  34.892  23.489
1629.14  34.892  23.458
1629.64  34.542  23.458
1630.14  34.776  23.458
1630.64  34.659  23.458
1631.14  34.776  23.458
1631.64  34.776  23.458
1632.14  34.659  23.458
1632.64  34.659  23.489
1633.14  34.776  23.458
1633.64  34.659  23.458
1634.14  34.892  23.458
1634.64  34.892  23.489
1635.14  34.892  23.427
1635.64  34.776  23.458
1636.14  35.005  23.458
1636.64  34.776  23.458
1637.14  34.776  23.427
1637.64  34.776  23.458
1638.14  34.776  23.489
1638.64  34.776  23.458
1639.14  34.659  23.489
1639.64  34.776  23.489
1640.14  34.776  23.458
1640.64  34.776  23.458
1641.14  34.659  23.489
1641.64  34.542  23.458
1642.14  34.659  23.427
1642.65  34.892  23.520
1643.15  34.776  23.458
1643.65  34.776  23.458
1644.15  34.776  23.458
1644.65  34.776  23.489
1645.15  34.776  23.458
1645.65  34.776  23.458
1646.15  34.892  23.458
1646.65  34.776  23.458
1647.15  34.892  23.458
1647.65  34.776  23.489
1648.15  34.892  23.489
1648.65  34.659  23.550
1649.15  34.892  23.489
1649.65  34.892  23.458
1650.15  34.776  23.458
1650.65  34.776  23.489
1651.15  34.892  23.489
1651.65  34.776  23.489
1652.15  34.892  23.458
1652.65  34.776  23.489
1653.15  34.892  23.458
1653.65  34.892  23.489
1654.15  34.892  23.489
1654.65  34.776  23.489
1655.15  34.776  23.489
1655.65  34.776  23.458
1656.15  34.776  23.489
1656.65  34.892  23.520
1657.15  34.892  23.458
1657.65  34.892  23.458
1658.15  35.005  23.458
1658.65  34.892  23.458
1659.15  34.776  23.489
1659.65  34.892  23.489
1660.15  34.892  23.458
1660.65  34.892  23.458
1661.15  34.892  23.489
1661.65  34.892  23.458
1662.15  34.776  23.489
1662.65  34.892  23.458
1663.15  34.776  23.458
1663.65  34.892  23.489
1664.15  34.776  23.489
1664.65  35.005  23.458
1665.15  34.892  23.458
1665.65  34.892  23.489
1666.15  34.892  23.489
1666.65  34.892  23.427
1667.15  34.892  23.458
1667.65  34.776  23.520
1668.15  34.776  23.550
1668.65  34.892  23.458
1669.15  34.892  23.489
1669.65  34.892  23.458
1670.15  34.892  23.489
1670.65  34.776  23.489
1671.15  34.892  23.489
1671.65  34.892  23.458
1672.15  35.069  23.458
1672.65  34.892  23.458
1673.15  35.005  23.489
1673.65  34.892  23.458
1674.15  34.776  23.550
1674.65  34.776  23.458
1675.15  35.005  23.489
1675.65  34.892  23.427
1676.15  34.892  23.458
1676.65  34.892  23.489
1677.15  34.892  23.489
1677.65  34.892  23.520
1678.15  34.892  23.458
1678.65  34.659  23.489
1679.15  34.659  23.458
1679.65  34.892  23.489
1680.15  34.892  23.489
1680.65  34.892  23.458
1681.15  34.892  23.489
1681.65  35.005  23.458
1682.15  34.892  23.489
1682.65  35.005  23.489
1683.15  34.892  23.458
1683.65  35.005  23.458
1684.15  34.892  23.520
1684.65  34.892  23.520
1685.15  35.005  23.489
1685.65  35.005  23.489
1686.15  35.005  23.489
1686.65  34.892  23.458
1687.15  34.776  23.520
1687.65  35.069  23.520
1688.15  34.776  23.458
1688.65  34.892  23.489
1689.15  35.005  23.489
1689.65  34.892  23.458
1690.15  34.892  23.520
1690.65  34.892  23.489
1691.15  35.005  23.458
1691.65  34.892  23.489
1692.15  35.005  23.458
1692.65  34.892  23.458
1693.15  34.892  23.489
1693.65  35.005  23.458
1694.15  35.005  23.489
1694.65  35.005  23.489
1695.15  34.776  23.489
1695.65  35.005  23.489
1696.15  34.776  23.489
1696.65  35.005  23.489
1697.15  34.892  23.458
1697.65  35.005  23.489
1698.15  35.005  23.520
1698.65  34.776  23.520
1699.15  35.069  23.489
1699.65  34.892  23.489
1700.15  35.069  23.458
1700.65  35.005  23.520
1701.15  34.892  23.489
1701.65  35.005  23.520
1702.15  35.069  23.520
1702.65  35.005  23.489
1703.15  34.892  23.489
1703.65  35.005  23.489
1704.15  35.005  23.489
1704.65  35.069  23.489
1705.15  35.005  23.458
1705.65  35.005  23.520
1706.15  34.776  23.520
1706.65  34.892  23.489
1707.15  35.005  23.489
1707.65  35.133  23.489
1708.15  35.005  23.520
1708.65  35.005  23.489
1709.15  35.133  23.520
1709.65  35.133  23.458
1710.15  34.892  23.520
1710.65  35.005  23.489
1711.15  35.005  23.489
1711.65  35.005  23.489
1712.15  35.005  23.489
1712.65  35.005  23.489
1713.15  35.005  23.489
1713.65  35.069  23.520
1714.15  35.005  23.489
1714.65  34.892  23.489
1715.15  35.069  23.458
1715.65  35.005  23.550
1716.15  35.005  23.489
1716.65  35.005  23.550
1717.15  35.005  23.489
1717.65  34.892  23.520
1718.15  35.005  23.489
1718.65  35.005  23.489
1719.15  34.892  23.520
1719.65  35.005  23.489
1720.15  35.005  23.520
1720.65  35.069  23.489
1721.15  34.892  23.520
1721.65  35.005  23.550
1722.15  35.069  23.520
1722.65  35.005  23.489
1723.15  35.005  23.520
1723.65  35.005  23.520
1724.15  35.133  23.489
1724.65  35.005  23.520
1725.15  35.069  23.489
1725.65  35.069  23.489
1726.15  35.005  23.458
1726.65  35.069  23.489
1727.15  35.005  23.520
1727.65  34.892  23.458
1728.15  35.069  23.458
1728.65  35.005  23.550
1729.15  35.069  23.458
1729.65  35.069  23.458
1730.15  35.069  23.520
1730.65  35.005  23.520
1731.15  35.197  23.489
1731.65  35.005  23.489
1732.15  35.005  23.520
1732.65  35.069  23.489
1733.15  35.005  23.520
1733.65  35.005  23.489
1734.15  34.892  23.489
1734.65  35.069  23.520
1735.15  35.005  23.520
1735.65  35.197  23.520
1736.15  35.005  23.520
1736.65  35.005  23.489
1737.15  35.069  23.458
1737.65  35.005  23.520
1738.15  35.005  23.520
1738.65  35.005  23.458
1739.15  35.069  23.489
1739.65  35.069  23.520
1740.15  35.005  23.489
1740.65  35.133  23.520
1741.15  35.005  23.489
1741.65  35.005  23.489
1742.15  35.005  23.520
1742.65  35.069  23.550
1743.15  35.069  23.550
1743.65  35.005  23.489
1744.15  35.069  23.520
1744.65  35.069  23.489
1745.15  35.069  23.489
1745.65  35.069  23.520
1746.15  35.069  23.489
1746.65  35.005  23.489
1747.15  35.069  23.520
1747.65  35.069  23.489
1748.15  35.069  23.489
1748.65  35.069  23.489
1749.15  35.069  23.520
1749.65  35.069  23.489
1750.15  35.069  23.550
1750.65  35.069  23.520
1751.15  34.776  23.520
1751.65  35.069  23.520
1752.15  35.069  23.550
1752.65  35.005  23.520
1753.15  35.133  23.520
1753.65  35.069  23.489
1754.15  35.005  23.550
1754.65  35.069  23.520
1755.15  35.133  23.550
1755.66  35.069  23.520
1756.16  35.069  23.550
1756.66  35.069  23.520
1757.16  35.069  23.520
1757.66  35.197  23.520
1758.16  35.069  23.520
1758.66  35.069  23.520
1759.16  35.069  23.520
1759.66  35.069  23.550
1760.16  35.005  23.550
1760.66  35.133  23.489
1761.16  35.133  23.489
1761.66  35.069  23.520
1762.16  35.005  23.520
1762.66  35.069  23.520
1763.16  35.069  23.550
1763.66  35.069  23.550
1764.16  35.005  23.520
1764.66  35.133  23.550
1765.16  35.133  23.550
1765.66  35.133  23.550
1766.16  35.133  23.550
1766.66  35.069  23.520
1767.16  35.133  23.520
1767.66  35.069  23.520
1768.16  35.069  23.489
1768.66  35.069  23.520
1769.16  35.069  23.520
1769.66  35.133  23.520
1770.16  35.133  23.550
1770.66  35.133  23.489
1771.16  35.133  23.520
1771.66  35.069  23.489
1772.16  35.133  23.520
1772.66  35.133  23.520
1773.16  35.005  23.550
1773.66  35.133  23.550
1774.16  35.069  23.550
1774.66  35.069  23.489
1775.16  35.069  23.520
1775.66  35.069  23.489
1776.16  35.133  23.520
1776.66  35.197  23.489
1777.16  35.133  23.520
1777.66  35.133  23.489
1778.16  35.069  23.520
1778.66  35.133  23.489
1779.16  35.069  23.520
1779.66  35.133  23.520
1780.16  35.197  23.489
1780.66  35.133  23.520
1781.16  35.069  23.520
1781.66  35.069  23.520
1782.16  35.133  23.520
1782.66  35.069  23.550
1783.16  35.069  23.550
1783.66  35.069  23.520
1784.16  35.133  23.489
1784.66  35.069  23.520
1785.16  35.069  23.550
1785.66  35.133  23.520
1786.16  35.133  23.550
1786.66  35.133  23.520
1787.16  35.133  23.520
1787.66  35.133  23.550
1788.16  35.197  23.520
1788.66  35.069  23.520
1789.16  35.069  23.520
1789.66  35.133  23.520
1790.16  35.133  23.489
1790.66  35.133  23.520
1791.16  35.133  23.520
1791.66  35.133  23.520
1792.16  35.133  23.520
1792.66  35.133  23.520
1793.16  35.133  23.520
1793.66  35.133  23.520
1794.16  35.197  23.520
1794.66  35.069  23.520
1795.16  35.197  23.520
1795.66  35.197  23.489
1796.16  35.069  23.489
1796.66  35.069  23.520
1797.16  35.133  23.520
1797.66  35.133  23.550
1798.16  35.197  23.550
1798.66  35.133  23.489
1799.16  35.133  23.550
1799.66  35.197  23.520
1800.16  35.005  23.520
1800.66  35.197  23.520
1801.16  35.069  23.550
1801.66  35.133  23.550
1802.16  35.069  23.520
1802.66  35.133  23.550
1803.16  35.197  23.550
1803.66  35.069  23.520
1804.16  35.133  23.550
1804.66  35.197  23.550
1805.16  35.197  23.520
1805.66  35.133  23.520
1806.16  35.133  23.550
1806.66  35.133  23.520
1807.16  35.133  23.520
1807.66  35.133  23.520
1808.16  35.133  23.520
1808.66  35.133  23.520
1809.16  35.133  23.520
1809.66  35.133  23.520
1810.16  35.197  23.520
1810.66  35.197  23.458
1811.16  35.069  23.550
1811.66  35.133  23.458
1812.16  35.133  23.550
1812.66  35.133  23.520
1813.16  35.133  23.520
1813.66  35.197  23.520
1814.16  35.197  23.550
1814.66  35.197  23.520
1815.16  35.197  23.520
1815.66  35.133  23.520
1816.16  35.133  23.550
1816.66  35.133  23.550
1817.16  35.133  23.520
1817.66  35.133  23.489
1818.16  35.197  23.550
1818.66  35.133  23.520
1819.16  35.133  23.520
1819.66  35.197  23.520
1820.16  35.133  23.520
1820.66  35.261  23.520
1821.16  35.261  23.550
1821.66  35.197  23.550
1822.16  35.197  23.550
1822.66  35.133  23.550
1823.16  35.197  23.520
1823.66  35.197  23.550
1824.16  35.197  23.550
1824.66  35.069  23.550
1825.16  35.133  23.520
1825.66  35.197  23.550
1826.16  35.133  23.520
1826.66  35.133  23.550
1827.16  35.197  23.520
1827.66  35.197  23.581
1828.16  35.197  23.520
1828.66  35.197  23.550
1829.16  35.197  23.520
1829.66  35.197  23.550
1830.16  35.133  23.520
1830.66  35.197  23.550
1831.16  35.197  23.489
1831.66  35.197  23.489
1832.16  35.069  23.550
1832.66  35.133  23.550
1833.16  35.389  23.520
1833.66  35.197  23.550
1834.16  35.197  23.550
1834.66  35.197  23.581
1835.16  35.133  23.550
1835.66  35.133  23.520
1836.16  35.197  23.520
1836.66  35.197  23.550
1837.16  35.197  23.550
1837.66  35.133  23.520
1838.16  35.197  23.550
1838.66  35.197  23.550
1839.16  35.069  23.550
1839.66  35.197  23.520
1840.16  35.197  23.489
1840.66  35.197  23.520
1841.16  35.261  23.520
1841.66  35.197  23.550
1842.16  35.133  23.520
1842.66  35.197  23.550
1843.16  35.261  23.550
1843.66  35.197  23.550
1844.16  35.133  23.581
1844.66  35.133  23.520
1845.16  35.197  23.550
1845.66  35.197  23.550
1846.16  35.133  23.550
1846.66  35.197  23.520
1847.16  35.197  23.581
1847.66  35.197  23.520
1848.16  35.261  23.550
1848.66  35.261  23.550
1849.16  35.197  23.550
1849.66  35.261  23.489
1850.16  35.197  23.520
1850.66  35.197  23.520
1851.16  35.197  23.550
1851.66  35.197  23.520
1852.16  35.197  23.550
1852.66  35.325  23.550
1853.16  35.197  23.520
1853.66  35.389  23.550
1854.16  35.197  23.550
1854.66  35.197  23.581
1855.16  35.197  23.550
1855.66  35.261  23.520
1856.16  35.197  23.550
1856.66  35.197  23.550
1857.16  35.197  23.581
1857.66  35.261  23.550
1858.16  35.197  23.550
1858.66  35.197  23.550
1859.16  35.325  23.550
1859.66  35.261  23.489
1860.16  35.197  23.550
1860.66  35.261  23.550
1861.16  35.261  23.520
1861.66  35.261  23.520
1862.16  35.197  23.550
1862.66  35.261  23.550
1863.16  35.261  23.520
1863.66  35.197  23.520
1864.16  35.197  23.550
1864.66  35.197  23.520
1865.16  35.261  23.581
1865.66  35.197  23.550
1866.16  35.261  23.550
1866.66  35.261  23.581
1867.16  35.261  23.520
1867.66  35.261  23.520
1868.16  35.133  23.520
1868.66  35.261  23.550
1869.17  35.261  23.581
1869.67  35.261  23.550
1870.17  35.261  23.550
1870.67  35.261  23.581
1871.17  35.261  23.550
1871.67  35.261  23.581
1872.17  35.453  23.550
1872.67  35.197  23.581
1873.17  35.261  23.550
1873.67  35.261  23.550
1874.17  35.325  23.550
1874.67  35.325  23.581
1875.17  35.261  23.520
1875.67  35.197  23.489
1876.17  35.197  23.520
1876.67  35.261  23.550
1877.17  35.325  23.550
1877.67  35.325  23.550
1878.17  35.261  23.581
1878.67  35.197  23.550
1879.17  35.261  23.550
1879.67  35.261  23.550
1880.17  35.197  23.550
1880.67  35.261  23.550
1881.17  35.197  23.550
1881.67  35.197  23.550
1882.17  35.261  23.550
1882.67  35.261  23.550
1883.17  35.325  23.550
1883.67  35.325  23.520
1884.17  35.261  23.550
1884.67  35.325  23.581
1885.17  35.261  23.550
1885.67  35.325  23.581
1886.17  35.325  23.550
1886.67  35.325  23.550
1887.17  35.389  23.581
1887.67  35.197  23.550
1888.17  35.261  23.581
1888.67  35.261  23.550
1889.17  35.261  23.581
1889.67  35.325  23.550
1890.17  35.325  23.581
1890.67  35.261  23.550
1891.17  35.261  23.550
1891.67  35.133  23.550
1892.17  35.325  23.550
1892.67  35.261  23.581
1893.17  35.325  23.550
1893.67  35.261  23.550
1894.17  35.261  23.581
1894.67  35.261  23.550
1895.17  35.261  23.550
1895.67  35.261  23.550
1896.17  35.389  23.550
1896.67  35.325  23.581
1897.17  35.197  23.550
1897.67  35.261  23.550
1898.17  35.325  23.581
1898.67  35.261  23.581
1899.17  35.261  23.550
1899.67  35.261  23.520
1900.17  35.325  23.581
1900.67  35.261  23.581
1901.17  35.389  23.581
1901.67  35.261  23.550
1902.17  35.389  23.550
1902.67  35.325  23.550
1903.17  35.325  23.520
1903.67  35.261  23.581
1904.17  35.325  23.550
1904.67  35.325  23.581
1905.17  35.325  23.550
1905.67  35.261  23.550
1906.17  35.261  23.550
1906.67  35.325  23.550
1907.17  35.261  23.581
1907.67  35.325  23.550
1908.17  35.261  23.550
1908.67  35.325  23.581
1909.17  35.261  23.581
1909.67  35.261  23.550
1910.17  35.325  23.550
1910.67  35.325  23.581
1911.17  35.389  23.550
1911.67  35.325  23.581
1912.17  35.325  23.550
1912.67  35.325  23.550
1913.17  35.325  23.581
1913.67  35.325  23.550
1914.17  35.325  23.612
1914.67  35.325  23.520
1915.17  35.261  23.489
1915.67  35.325  23.550
1916.17  35.261  23.550
1916.67  35.261  23.550
1917.17  35.325  23.550
1917.67  35.261  23.550
1918.17  35.261  23.581
1918.67  35.325  23.550
1919.17  35.261  23.581
1919.67  35.325  23.550
1920.17  35.325  23.581
1920.67  35.261  23.550
1921.17  35.389  23.581
1921.67  35.325  23.550
1922.17  35.325  23.581
1922.67  35.325  23.581
1923.17  35.325  23.550
1923.67  35.325  23.550
1924.17  35.325  23.550
1924.67  35.261  23.550
1925.17  35.325  23.581
1925.67  35.325  23.581
1926.17  35.517  23.550
1926.67  35.261  23.581
1927.17  35.325  23.581
1927.67  35.325  23.550
1928.17  35.261  23.550
1928.67  35.325  23.550
1929.17  35.325  23.581
1929.67  35.325  23.550
1930.17  35.325  23.581
1930.67  35.325  23.581
1931.17  35.325  23.581
1931.67  35.261  23.550
1932.17  35.325  23.581
1932.67  35.325  23.581
1933.17  35.389  23.581
1933.67  35.389  23.581
1934.17  35.325  23.550
1934.67  35.325  23.550
1935.17  35.389  23.550
1935.67  35.325  23.643
1936.17  35.389  23.550
1936.67  35.325  23.581
1937.17  35.325  23.550
1937.67  35.325  23.581
1938.17  35.453  23.550
1938.67  35.261  23.550
1939.17  35.389  23.581
1939.67  35.389  23.581
1940.17  35.325  23.612
1940.67  35.389  23.581
1941.17  35.325  23.581
1941.67  35.453  23.581
1942.17  35.389  23.581
1942.67  35.325  23.581
1943.17  35.325  23.612
1943.67  35.325  23.581
1944.17  35.325  23.581
1944.67  35.325  23.612
1945.17  35.389  23.581
1945.67  35.261  23.581
1946.17  35.325  23.581
1946.67  35.325  23.520
1947.17  35.389  23.612
1947.67  35.325  23.550
1948.17  35.389  23.550
1948.67  35.325  23.581
1949.17  35.389  23.581
1949.67  35.389  23.581
1950.17  35.389  23.581
1950.67  35.453  23.581
1951.17  35.325  23.581
1951.67  35.389  23.581
1952.17  35.325  23.581
1952.67  35.389  23.581
1953.17  35.389  23.581
1953.67  35.389  23.550
1954.17  35.389  23.581
1954.67  35.389  23.581
1955.17  35.389  23.581
1955.67  35.453  23.581
1956.17  35.389  23.612
1956.67  35.325  23.581
1957.17  35.325  23.581
1957.67  35.389  23.581
1958.17  35.389  23.581
1958.67  35.389  23.581
1959.17  35.389  23.581
1959.67  35.325  23.581
1960.17  35.453  23.581
1960.67  35.389  23.581
1961.17  35.517  23.581
1961.67  35.389  23.550
1962.17  35.389  23.643
1962.67  35.453  23.550
1963.17  35.389  23.520
1963.67  35.389  23.643
1964.17  35.389  23.581
1964.67  35.389  23.550
1965.17  35.453  23.581
1965.67  35.453  23.612
1966.17  35.453  23.612
1966.67  35.389  23.581
1967.17  35.389  23.581
1967.67  35.517  23.581
1968.17  35.389  23.581
1968.67  35.325  23.581
1969.17  35.389  23.581
1969.67  35.325  23.581
1970.17  35.389  23.581
1970.67  35.453  23.581
1971.17  35.325  23.581
1971.67  35.325  23.581
1972.17  35.389  23.612
1972.67  35.453  23.643
1973.17  35.453  23.612
1973.67  35.389  23.612
1974.17  35.325  23.581
1974.67  35.389  23.581
1975.17  35.517  23.581
1975.67  35.389  23.550
1976.17  35.453  23.581
1976.67  35.389  23.581
1977.17  35.389  23.612
1977.67  35.389  23.581
1978.17  35.389  23.581
1978.67  35.389  23.612
1979.17  35.389  23.612
1979.67  35.389  23.612
1980.17  35.389  23.612
1980.67  35.453  23.550
1981.17  35.517  23.581
1981.67  35.453  23.581
1982.18  35.389  23.612
1982.68  35.389  23.612
1983.18  35.453  23.581
1983.68  35.325  23.581
1984.18  35.453  23.581
1984.68  35.389  23.581
1985.18  35.389  23.612
1985.68  35.389  23.612
1986.18  35.453  23.581
1986.68  35.453  23.612
1987.18  35.389  23.581
1987.68  35.453  23.612
1988.18  35.453  23.581
1988.68  35.389  23.581
1989.18  35.453  23.581
1989.68  35.453  23.581
1990.18  35.453  23.581
1990.68  35.389  23.581
1991.18  35.453  23.581
1991.68  35.453  23.612
1992.18  35.389  23.581
1992.68  35.453  23.581
1993.18  35.389  23.612
1993.68  35.517  23.581
1994.18  35.453  23.612
1994.68  35.389  23.581
1995.18  35.453  23.581
1995.68  35.389  23.581
1996.18  35.453  23.612
1996.68  35.389  23.581
1997.18  35.453  23.612
1997.68  35.453  23.612
1998.18  35.453  23.581
1998.68  35.517  23.581
1999.18  35.645  23.581
1999.68  35.453  23.612
2000.18  35.453  23.581
2000.68  35.517  23.581
2001.18  35.389  23.581
2001.68  35.453  23.612
2002.18  35.453  23.612
2002.68  35.389  23.612
2003.18  35.453  23.612
2003.68  35.453  23.643
2004.18  35.389  23.612
2004.68  35.389  23.612
2005.18  35.389  23.612
2005.68  35.389  23.612
2006.18  35.581  23.643
2006.68  35.453  23.581
2007.18  35.389  23.612
2007.68  35.453  23.643
2008.18  35.389  23.581
2008.68  35.453  23.550
2009.18  35.325  23.581
2009.68  35.453  23.643
2010.18  35.453  23.612
2010.68  35.453  23.581
2011.18  35.453  23.550
2011.68  35.453  23.612
2012.18  35.453  23.612
2012.68  35.453  23.581
2013.18  35.453  23.581
2013.68  35.389  23.581
2014.18  35.517  23.581
2014.68  35.453  23.612
2015.18  35.389  23.612
2015.68  35.517  23.612
2016.18  35.453  23.643
2016.68  35.517  23.612
2017.18  35.453  23.550
2017.68  35.389  23.612
2018.18  35.517  23.612
2018.68  35.453  23.612
2019.18  35.453  23.612
2019.68  35.453  23.612
2020.18  35.517  23.612
2020.68  35.453  23.612
2021.18  35.517  23.612
2021.68  35.453  23.581
2022.18  35.517  23.612
2022.68  35.453  23.612
2023.18  35.453  23.581
2023.68  35.517  23.612
2024.18  35.453  23.581
2024.68  35.517  23.550
2025.18  35.517  23.612
2025.68  35.517  23.612
2026.18  35.453  23.581
2026.68  35.517  23.612
2027.18  35.517  23.612
2027.68  35.453  23.643
2028.18  35.453  23.643
2028.68  35.517  23.612
2029.18  35.581  23.612
2029.68  35.453  23.612
2030.18  35.389  23.612
2030.68  35.389  23.643
2031.18  35.389  23.581
2031.68  35.453  23.612
2032.18  35.517  23.612
2032.68  35.517  23.612
2033.18  35.453  23.581
2033.68  35.517  23.612
2034.18  35.517  23.612
2034.68  35.517  23.612
2035.18  35.453  23.643
2035.68  35.453  23.612
2036.18  35.517  23.581
2036.68  35.453  23.643
2037.18  35.453  23.612
2037.68  35.645  23.612
2038.18  35.453  23.612
2038.68  35.517  23.581
2039.18  35.453  23.643
2039.68  35.517  23.612
2040.18  35.517  23.581
2040.68  35.517  23.581
2041.18  35.453  23.550
2041.68  35.517  23.581
2042.18  35.517  23.612
2042.68  35.453  23.612
2043.18  35.517  23.612
2043.68  35.517  23.643
2044.18  35.453  23.612
2044.68  35.453  23.612
2045.18  35.453  23.612
2045.68  35.517  23.612
2046.18  35.581  23.612
2046.68  35.453  23.612
2047.18  35.453  23.643
2047.68  35.517  23.612
2048.18  35.453  23.612
2048.68  35.517  23.612
2049.18  35.453  23.612
2049.68  35.453  23.612
2050.18  35.517  23.612
2050.68  35.453  23.643
2051.18  35.581  23.643
2051.68  35.517  23.643
2052.18  35.517  23.612
2052.68  35.453  23.612
2053.18  35.517  23.612
2053.68  35.453  23.612
2054.18  35.517  23.581
2054.68  35.517  23.612
2055.18  35.581  23.581
2055.68  35.453  23.581
2056.18  35.453  23.581
2056.68  35.581  23.643
2057.18  35.517  23.612
2057.68  35.517  23.612
2058.18  35.517  23.612
2058.68  35.645  23.674
2059.18  35.453  23.581
2059.68  35.581  23.612
2060.18  35.517  23.612
2060.68  35.453  23.581
2061.18  35.517  23.612
2061.68  35.517  23.612
2062.18  35.453  23.612
2062.68  35.517  23.643
2063.18  35.581  23.581
2063.68  35.517  23.612
2064.18  35.389  23.612
2064.68  35.517  23.581
2065.18  35.517  23.612
2065.68  35.517  23.643
2066.18  35.517  23.612
2066.68  35.453  23.643
2067.18  35.517  23.612
2067.68  35.517  23.643
2068.18  35.517  23.581
2068.68  35.517  23.643
2069.18  35.517  23.612
2069.68  35.517  23.643
2070.18  35.517  23.643
2070.68  35.581  23.643
2071.18  35.581  23.643
2071.68  35.517  23.612
2072.18  35.581  23.612
2072.68  35.581  23.643
2073.18  35.581  23.643
2073.68  35.581  23.612
2074.18  35.581  23.643
2074.68  35.581  23.643
2075.18  35.517  23.674
2075.68  35.581  23.643
2076.18  35.581  23.612
2076.68  35.517  23.643
2077.18  35.517  23.674
2077.68  35.517  23.643
2078.18  35.517  23.612
2078.68  35.517  23.612
2079.18  35.517  23.643
2079.68  35.581  23.674
2080.18  35.517  23.643
2080.68  35.581  23.643
2081.18  35.581  23.612
2081.68  35.517  23.674
2082.18  35.517  23.612
2082.68  35.517  23.674
2083.18  35.517  23.612
2083.68  35.581  23.643
2084.18  35.517  23.643
2084.68  35.581  23.612
2085.18  35.517  23.643
2085.68  35.581  23.643
2086.18  35.517  23.643
2086.68  35.517  23.643
2087.18  35.517  23.550
2087.68  35.581  23.705
2088.18  35.581  23.643
2088.68  35.517  23.581
2089.18  35.581  23.581
2089.68  35.517  23.612
2090.18  35.517  23.612
2090.68  35.709  23.643
2091.18  35.581  23.643
2091.68  35.453  23.643
2092.18  35.517  23.643
2092.68  35.517  23.643
2093.18  35.581  23.612
2093.68  35.581  23.674
2094.18  35.517  23.643
2094.68  35.581  23.643
2095.19  35.517  23.643
2095.69  35.581  23.643
2096.19  35.581  23.612
2096.69  35.453  23.643
2097.19  35.581  23.643
2097.69  35.645  23.612
2098.19  35.517  23.643
2098.69  35.645  23.643
2099.19  35.581  23.674
2099.69  35.581  23.643
2100.19  35.517  23.612
2100.69  35.581  23.612
2101.19  35.581  23.643
2101.69  35.581  23.705
2102.19  35.517  23.643
2102.69  35.581  23.612
2103.19  35.581  23.643
2103.69  35.517  23.643
2104.19  35.581  23.643
2104.69  35.581  23.674
2105.19  35.581  23.643
2105.69  35.517  23.643
2106.19  35.581  23.643
2106.69  35.581  23.643
2107.19  35.645  23.612
2107.69  35.645  23.643
2108.19  35.517  23.674
2108.69  35.581  23.581
2109.19  35.581  23.643
2109.69  35.645  23.643
2110.19  35.581  23.643
2110.69  35.581  23.643
2111.19  35.517  23.612
2111.69  35.581  23.643
2112.19  35.517  23.674
2112.69  35.581  23.612
2113.19  35.581  23.674
2113.69  35.517  23.612
2114.19  35.453  23.581
2114.69  35.581  23.612
2115.19  35.581  23.643
2115.69  35.517  23.612
2116.19  35.645  23.612
2116.69  35.581  23.643
2117.19  35.581  23.643
2117.69  35.581  23.643
2118.19  35.645  23.643
2118.69  35.581  23.643
2119.19  35.517  23.643
2119.69  35.517  23.612
2120.19  35.581  23.643
2120.69  35.517  23.612
2121.19  35.581  23.643
2121.69  35.645  23.643
2122.19  35.645  23.674
2122.69  35.581  23.643
2123.19  35.709  23.643
2123.69  35.581  23.643
2124.19  35.581  23.612
2124.69  35.581  23.612
2125.19  35.581  23.643
2125.69  35.581  23.612
2126.19  35.581  23.674
2126.69  35.581  23.612
2127.19  35.645  23.643
2127.69  35.645  23.674
2128.19  35.581  23.612
2128.69  35.581  23.612
2129.19  35.709  23.674
2129.69  35.645  23.643
2130.19  35.645  23.612
2130.69  35.645  23.643
2131.19  35.645  23.643
2131.69  35.581  23.643
2132.19  35.645  23.643
2132.69  35.581  23.674
2133.19  35.581  23.674
2133.69  35.581  23.674
2134.19  35.581  23.674
2134.69  35.645  23.643
2135.19  35.581  23.674
2135.69  35.645  23.612
2136.19  35.581  23.674
2136.69  35.645  23.643
2137.19  35.645  23.643
2137.69  35.709  23.643
2138.19  35.581  23.674
2138.69  35.581  23.674
2139.19  35.581  23.643
2139.69  35.645  23.643
2140.19  35.581  23.643
2140.69  35.773  23.643
2141.19  35.645  23.612
2141.69  35.709  23.643
2142.19  35.645  23.612
2142.69  35.581  23.674
2143.19  35.645  23.643
2143.69  35.645  23.643
2144.19  35.581  23.643
2144.69  35.581  23.674
2145.19  35.645  23.674
2145.69  35.581  23.643
2146.19  35.581  23.674
2146.69  35.645  23.674
2147.19  35.645  23.674
2147.69  35.709  23.643
2148.19  35.581  23.612
2148.69  35.581  23.674
2149.19  35.581  23.643
2149.69  35.645  23.612
2150.19  35.645  23.674
2150.69  35.645  23.643
2151.19  35.645  23.674
2151.69  35.581  23.674
2152.19  35.581  23.674
2152.69  35.645  23.612
2153.19  35.645  23.643
2153.69  35.645  23.643
2154.19  35.709  23.612
2154.69  35.645  23.674
2155.19  35.581  23.674
2155.69  35.645  23.674
2156.19  35.709  23.643
2156.69  35.453  23.643
2157.19  35.709  23.643
2157.69  35.709  23.643
2158.19  35.517  23.643
2158.69  35.581  23.643
2159.19  35.645  23.643
2159.69  35.645  23.735
2160.19  35.645  23.674
2160.69  35.709  23.674
2161.19  35.645  23.643
2161.69  35.709  23.674
2162.19  35.645  23.674
2162.69  35.709  23.643
2163.19  35.645  23.643
2163.69  35.645  23.643
2164.19  35.645  23.674
2164.69  35.645  23.674
2165.19  35.645  23.674
2165.69  35.709  23.674
2166.19  35.709  23.643
2166.69  35.645  23.674
2167.19  35.709  23.674
2167.69  35.645  23.643
2168.19  35.645  23.674
2168.69  35.709  23.674
2169.19  35.645  23.643
2169.69  35.645  23.643
2170.19  35.581  23.674
2170.69  35.645  23.643
2171.19  35.709  23.705
2171.69  35.581  23.674
2172.19  35.645  23.674
2172.69  35.645  23.643
2173.19  35.709  23.674
2173.69  35.581  23.612
2174.19  35.645  23.674
2174.69  35.581  23.643
2175.19  35.709  23.674
2175.69  35.645  23.674
2176.19  35.645  23.643
2176.69  35.709  23.674
2177.19  35.773  23.674
2177.69  35.645  23.674
2178.19  35.709  23.643
2178.69  35.645  23.674
2179.19  35.709  23.643
2179.69  35.709  23.612
2180.19  35.709  23.643
2180.69  35.709  23.674
2181.19  35.709  23.643
2181.69  35.709  23.612
2182.19  35.709  23.674
2182.69  35.773  23.643
2183.19  35.645  23.643
2183.69  35.709  23.674
2184.19  35.645  23.643
2184.69  35.645  23.674
2185.19  35.645  23.674
2185.69  35.709  23.674
2186.19  35.645  23.674
2186.69  35.645  23.674
2187.19  35.645  23.674
2187.69  35.709  23.674
2188.19  35.709  23.674
2188.69  35.773  23.674
2189.19  35.645  23.643
2189.69  35.709  23.674
2190.19  35.709  23.643
2190.69  35.645  23.674
2191.19  35.645  23.705
2191.69  35.773  23.674
2192.19  35.645  23.674
2192.69  35.773  23.643
2193.19  35.709  23.674
2193.69  35.709  23.674
2194.19  35.645  23.674
2194.69  35.709  23.674
2195.19  35.709  23.705
2195.69  35.709  23.674
2196.19  35.645  23.674
2196.69  35.581  23.674
2197.19  35.709  23.643
2197.70  35.645  23.674
2198.20  35.709  23.674
2198.70  35.709  23.705
2199.20  35.709  23.705
2199.70  35.645  23.674
2200.20  35.837  23.643
2200.70  35.709  23.674
2201.20  35.709  23.674
2201.70  35.773  23.674
2202.20  35.709  23.674
2202.70  35.709  23.643
2203.20  35.709  23.674
2203.70  35.709  23.674
2204.20  35.773  23.643
2204.70  35.709  23.674
2205.20  35.837  23.643
2205.70  35.709  23.705
2206.20  35.645  23.612
2206.70  35.709  23.705
2207.20  35.645  23.674
2207.70  35.709  23.705
2208.20  35.709  23.674
2208.70  35.709  23.674
2209.20  35.709  23.674
2209.70  35.645  23.674
2210.20  35.773  23.674
2210.70  35.709  23.674
2211.20  35.773  23.643
2211.70  35.645  23.674
2212.20  35.709  23.643
2212.70  35.645  23.674
2213.20  35.709  23.643
2213.70  35.645  23.674
2214.20  35.709  23.643
2214.70  35.709  23.674
2215.20  35.709  23.674
2215.70  35.645  23.674
2216.20  35.645  23.705
2216.70  35.709  23.705
2217.20  35.709  23.674
2217.70  35.709  23.705
2218.20  35.645  23.674
2218.70  35.709  23.674
2219.20  35.709  23.705
2219.70  35.709  23.705
2220.20  35.709  23.674
2220.70  35.837  23.674
2221.20  35.645  23.735
2221.70  35.645  23.674
2222.20  35.709  23.674
2222.70  35.709  23.674
2223.20  35.773  23.735
2223.70  35.709  23.643
2224.20  35.709  23.674
2224.70  35.773  23.674
2225.20  35.709  23.674
2225.70  35.773  23.643
2226.20  35.709  23.674
2226.70  35.709  23.643
2227.20  35.709  23.643
2227.70  35.709  23.643
2228.20  35.709  23.705
2228.70  35.709  23.674
2229.20  35.709  23.674
2229.70  35.773  23.674
2230.20  35.709  23.705
2230.70  35.709  23.705
2231.20  35.709  23.643
2231.70  35.709  23.674
2232.20  35.709  23.674
2232.70  35.773  23.674
2233.20  35.709  23.674
2233.70  35.709  23.674
2234.20  35.773  23.674
2234.70  35.709  23.674
2235.20  35.709  23.705
2235.70  35.645  23.674
2236.20  35.773  23.643
2236.70  35.709  23.643
2237.20  35.773  23.674
2237.70  35.709  23.674
2238.20  35.773  23.705
2238.70  35.709  23.674
2239.20  35.709  23.674
2239.70  35.773  23.674
2240.20  35.773  23.674
2240.70  35.773  23.674
2241.20  35.773  23.674
2241.70  35.773  23.674
2242.20  35.709  23.643
2242.70  35.709  23.674
2243.20  35.709  23.705
2243.70  35.773  23.643
2244.20  35.645  23.643
2244.70  35.773  23.674
2245.20  35.709  23.643
2245.70  35.709  23.705
2246.20  35.709  23.674
2246.70  35.773  23.674
2247.20  35.709  23.705
2247.70  35.773  23.643
2248.20  35.709  23.674
2248.70  35.709  23.674
2249.20  35.709  23.705
2249.70  35.709  23.674
2250.20  35.709  23.674
2250.70  35.709  23.674
2251.20  35.709  23.674
2251.70  35.773  23.674
2252.20  35.645  23.705
2252.70  35.837  23.674
2253.20  35.773  23.674
2253.70  35.709  23.674
2254.20  35.773  23.705
2254.70  35.709  23.674
2255.20  35.709  23.674
2255.70  35.709  23.705
2256.20  35.773  23.674
2256.70  35.773  23.674
2257.20  35.709  23.705
2257.70  35.709  23.674
2258.20  35.837  23.674
2258.70  35.709  23.735
2259.20  35.709  23.705
2259.70  35.709  23.674
2260.20  35.837  23.705
2260.70  35.773  23.705
2261.20  35.773  23.674
2261.70  35.837  23.674
2262.20  35.709  23.674
2262.70  35.837  23.705
2263.20  35.773  23.674
2263.70  35.709  23.674
2264.20  35.837  23.674
2264.70  35.709  23.643
2265.20  35.773  23.674
2265.70  35.773  23.735
2266.20  35.773  23.674
2266.70  35.901  23.705
2267.20  35.773  23.705
2267.70  35.709  23.674
2268.20  35.773  23.674
2268.70  35.709  23.705
2269.20  35.773  23.705
2269.70  35.709  23.705
2270.20  35.837  23.674
2270.70  35.773  23.643
2271.20  35.773  23.705
2271.70  35.773  23.705
2272.20  35.901  23.674
2272.70  35.773  23.705
2273.20  35.837  23.674
2273.70  35.773  23.705
2274.20  35.773  23.674
2274.70  35.773  23.674
2275.20  35.773  23.735
2275.70  35.773  23.674
2276.20  35.901  23.705
2276.70  35.773  23.735
2277.20  35.773  23.674
2277.70  35.773  23.705
2278.20  35.773  23.705
2278.70  35.773  23.705
2279.20  35.773  23.674
2279.70  35.837  23.674
2280.20  35.773  23.674
2280.70  35.837  23.674
2281.20  35.709  23.705
2281.70  35.773  23.705
2282.20  35.837  23.674
2282.70  35.837  23.705
2283.20  35.773  23.705
2283.70  35.773  23.705
2284.20  35.773  23.674
2284.70  35.837  23.705
2285.20  35.773  23.643
2285.70  35.773  23.735
2286.20  35.773  23.705
2286.70  35.837  23.674
2287.20  35.709  23.705
2287.70  35.837  23.674
2288.20  35.773  23.705
2288.70  35.837  23.705
2289.20  35.773  23.705
2289.70  35.773  23.705
2290.20  35.837  23.674
2290.70  35.901  23.705
2291.20  35.837  23.705
2291.70  35.901  23.705
2292.20  35.837  23.674
2292.70  35.837  23.674
2293.20  35.837  23.705
2293.70  35.837  23.705
2294.20  35.773  23.735
2294.70  35.901  23.674
2295.20  35.837  23.674
2295.70  35.773  23.705
2296.20  35.773  23.705
2296.70  35.837  23.705
2297.20  35.773  23.674
2297.70  35.837  23.705
2298.20  35.773  23.735
2298.70  35.837  23.735
2299.20  35.837  23.705
2299.70  35.837  23.735
2300.20  35.901  23.705
2300.70  35.837  23.705
2301.20  35.773  23.705
2301.70  35.773  23.674
2302.20  35.773  23.705
2302.70  35.837  23.705
2303.20  35.773  23.735
2303.70  35.837  23.674
2304.20  35.901  23.705
2304.70  35.773  23.705
2305.20  35.837  23.705
2305.70  35.837  23.705
2306.20  35.837  23.674
2306.70  35.773  23.674
2307.20  35.773  23.705
2307.70  35.773  23.674
2308.20  35.901  23.705
2308.70  35.837  23.705
2309.20  35.837  23.674
2309.70  35.837  23.705
2310.20  35.837  23.705
2310.70  35.773  23.674
2311.20  35.773  23.705
2311.70  35.773  23.674
2312.20  35.837  23.674
2312.70  35.837  23.735
2313.20  35.837  23.705
2313.70  35.773  23.674
2314.20  35.773  23.735
2314.70  35.773  23.705
2315.20  35.837  23.674
2315.70  35.773  23.705
2316.20  35.901  23.674
2316.70  35.837  23.705
2317.20  35.837  23.674
2317.70  35.837  23.705
2318.20  35.837  23.705
2318.70  35.837  23.674
2319.20  35.837  23.705
2319.70  35.837  23.705
2320.20  35.837  23.705
2320.70  35.837  23.705
2321.20  35.901  23.705
2321.71  35.837  23.705
2322.21  35.837  23.735
2322.71  35.773  23.705
2323.21  35.901  23.674
2323.71  35.837  23.705
2324.21  35.773  23.705
2324.71  35.709  23.735
2325.21  35.901  23.643
2325.71  35.837  23.705
2326.21  35.837  23.674
2326.71  35.837  23.705
2327.21  35.837  23.705
2327.71  35.773  23.674
2328.21  35.837  23.705
2328.71  35.901  23.674
2329.21  35.837  23.674
2329.71  35.773  23.705
2330.21  35.837  23.705
2330.71  35.773  23.674
2331.21  35.901  23.705
2331.71  35.773  23.705
2332.21  35.901  23.705
2332.71  35.837  23.705
2333.21  35.773  23.735
2333.71  35.773  23.705
2334.21  35.965  23.705
2334.71  35.901  23.735
2335.21  35.837  23.643
2335.71  35.837  23.705
2336.21  35.837  23.674
2336.71  36.029  23.705
2337.21  35.773  23.735
2337.71  35.837  23.705
2338.21  35.773  23.705
2338.71  35.837  23.735
2339.21  35.837  23.674
2339.71  35.837  23.705
2340.21  35.837  23.705
2340.71  35.901  23.705
2341.21  35.837  23.705
2341.71  35.837  23.735
2342.21  35.901  23.705
2342.71  35.837  23.735
2343.21  35.837  23.735
2343.71  35.837  23.705
2344.21  35.837  23.735
2344.71  35.837  23.705
2345.21  35.773  23.674
2345.71  35.837  23.735
2346.21  35.837  23.705
2346.71  35.837  23.705
2347.21  35.837  23.735
2347.71  35.901  23.705
2348.21  35.837  23.705
2348.71  35.901  23.735
2349.21  35.773  23.705
2349.71  35.773  23.705
2350.21  35.837  23.705
2350.71  35.837  23.735
2351.21  35.901  23.705
2351.71  35.837  23.735
2352.21  35.901  23.735
2352.71  35.901  23.705
2353.21  35.901  23.735
2353.71  35.901  23.705
2354.21  35.901  23.705
2354.71  35.837  23.705
2355.21  35.837  23.705
2355.71  35.837  23.705
2356.21  35.837  23.705
2356.71  35.837  23.735
2357.21  35.837  23.674
2357.71  35.901  23.705
2358.21  35.773  23.735
2358.71  35.773  23.705
2359.21  35.837  23.705
2359.71  35.901  23.735
2360.21  35.901  23.705
2360.71  35.901  23.735
2361.21  35.901  23.705
2361.71  35.901  23.674
2362.21  35.837  23.705
2362.71  35.837  23.705
2363.21  35.901  23.705
2363.71  35.901  23.705
2364.21  35.901  23.705
2364.71  35.901  23.735
2365.21  35.773  23.674
2365.71  35.901  23.735
2366.21  35.901  23.705
2366.71  35.837  23.735
2367.21  35.837  23.705
2367.71  35.837  23.735
2368.21  35.901  23.735
2368.71  35.837  23.735
2369.21  35.901  23.735
2369.71  35.837  23.735
2370.21  35.837  23.735
2370.71  35.773  23.705
2371.21  35.837  23.705
2371.71  35.837  23.705
2372.21  35.965  23.705
2372.71  35.965  23.705
2373.21  35.901  23.705
2373.71  35.837  23.705
2374.21  35.837  23.705
2374.71  35.901  23.705
2375.21  35.901  23.705
2375.71  35.901  23.705
2376.21  35.901  23.705
2376.71  35.901  23.705
2377.21  35.773  23.674
2377.71  35.837  23.735
2378.21  35.837  23.735
2378.71  35.901  23.705
2379.21  35.901  23.705
2379.71  35.901  23.735
2380.21  35.901  23.705
2380.71  35.837  23.735
2381.21  35.901  23.735
2381.71  35.901  23.705
2382.21  35.837  23.735
2382.71  35.901  23.705
2383.21  35.901  23.705
2383.71  35.901  23.735
2384.21  35.901  23.766
2384.71  35.773  23.735
2385.21  35.901  23.705
2385.71  35.965  23.735
2386.21  35.837  23.735
2386.71  35.965  23.735
2387.21  35.965  23.735
2387.71  35.901  23.735
2388.21  35.837  23.735
2388.71  35.837  23.705
2389.21  35.901  23.766
2389.71  35.901  23.735
2390.21  35.901  23.735
2390.71  35.901  23.674
2391.21  35.901  23.705
2391.71  35.901  23.674
2392.21  35.901  23.735
2392.71  35.901  23.735
2393.21  35.901  23.766
2393.71  35.901  23.735
2394.21  35.901  23.674
2394.71  35.901  23.735
2395.21  35.837  23.735
2395.71  35.901  23.797
2396.21  35.901  23.674
2396.71  35.901  23.766
2397.21  35.901  23.735
2397.71  35.901  23.674
2398.21  35.837  23.735
2398.71  35.901  23.766
2399.21  35.901  23.735
2399.71  35.901  23.735
2400.21  35.901  23.674
2400.71  35.901  23.735
2401.21  35.901  23.735
2401.71  35.837  23.705
2402.21  35.901  23.735
2402.71  35.901  23.735
2403.21  35.901  23.766
2403.71  35.965  23.735
2404.21  35.901  23.735
2404.71  35.901  23.735
2405.21  35.901  23.735
2405.71  35.901  23.735
2406.21  35.901  23.735
2406.71  35.901  23.735
2407.21  35.965  23.735
2407.71  35.901  23.735
2408.21  35.773  23.705
2408.71  35.901  23.735
2409.21  35.901  23.735
2409.71  35.901  23.735
2410.21  35.901  23.735
2410.71  35.965  23.735
2411.21  35.901  23.735
2411.71  35.965  23.735
2412.21  35.901  23.705
2412.71  35.901  23.705
2413.21  35.901  23.705
2413.71  35.965  23.735
2414.21  35.965  23.766
2414.71  35.901  23.735
2415.21  35.901  23.735
2415.71  35.901  23.735
2416.21  35.965  23.735
2416.71  35.965  23.735
2417.21  35.965  23.735
2417.71  35.901  23.735
2418.21  36.029  23.705
2418.71  35.901  23.705
2419.21  35.901  23.735
2419.71  35.901  23.735
2420.21  35.901  23.705
2420.71  35.965  23.735
2421.21  35.901  23.735
2421.71  35.901  23.705
2422.21  35.901  23.705
2422.71  36.029  23.735
2423.21  35.965  23.735
2423.72  35.965  23.735
2424.22  35.965  23.735
2424.72  35.901  23.705
2425.22  35.901  23.766
2425.72  35.965  23.705
2426.22  35.965  23.735
2426.72  35.901  23.735
2427.22  35.965  23.735
2427.72  35.965  23.735
2428.22  36.029  23.766
2428.72  35.965  23.735
2429.22  35.965  23.735
2429.72  35.901  23.735
2430.22  35.965  23.735
2430.72  35.965  23.705
2431.22  35.837  23.766
2431.72  35.901  23.766
2432.22  35.965  23.735
2432.72  35.837  23.797
2433.22  35.901  23.735
2433.72  35.965  23.735
2434.22  35.901  23.735
2434.72  35.901  23.766
2435.22  35.965  23.735
2435.72  35.965  23.705
2436.22  35.965  23.735
2436.72  35.965  23.735
2437.22  35.965  23.766
2437.72  35.901  23.735
2438.22  35.965  23.735
2438.72  35.965  23.735
2439.22  35.965  23.766
2439.72  35.837  23.735
2440.22  35.965  23.735
2440.72  35.965  23.705
2441.22  35.965  23.766
2441.72  36.029  23.735
2442.22  36.029  23.735
2442.72  35.965  23.735
2443.22  35.901  23.735
2443.72  35.965  23.735
2444.22  35.965  23.735
2444.72  35.965  23.735
2445.22  35.965  23.735
2445.72  35.901  23.705
2446.22  35.965  23.766
2446.72  35.965  23.735
2447.22  35.965  23.735
2447.72  35.965  23.735
2448.22  35.901  23.735
2448.72  35.965  23.797
2449.22  35.965  23.766
2449.72  36.029  23.643
2450.22  36.029  23.797
2450.72  35.965  23.766
2451.22  36.029  23.735
2451.72  35.901  23.735
2452.22  35.965  23.705
2452.72  35.965  23.735
2453.22  35.965  23.735
2453.72  35.965  23.766
2454.22  35.965  23.705
2454.72  35.965  23.735
2455.22  35.965  23.735
2455.72  35.965  23.766
2456.22  35.965  23.766
2456.72  35.965  23.766
2457.22  35.965  23.735
2457.72  35.965  23.735
2458.22  35.965  23.766
2458.72  35.965  23.735
2459.22  36.029  23.766
2459.72  35.965  23.735
2460.22  35.965  23.735
2460.72  36.029  23.735
2461.22  35.965  23.766
2461.72  35.965  23.766
2462.22  36.093  23.735
2462.72  35.965  23.766
2463.22  36.029  23.828
2463.72  35.965  23.735
2464.22  35.965  23.766
2464.72  35.901  23.766
2465.22  35.965  23.766
2465.72  35.901  23.705
2466.22  36.029  23.735
2466.72  36.029  23.735
2467.22  36.093  23.735
2467.72  36.029  23.766
2468.22  35.965  23.735
2468.72  36.029  23.766
2469.22  35.965  23.766
2469.72  36.029  23.735
2470.22  36.029  23.766
2470.72  35.901  23.766
2471.22  36.029  23.735
2471.72  35.965  23.766
2472.22  35.965  23.766
2472.72  35.965  23.766
2473.22  36.029  23.705
2473.72  36.029  23.766
2474.22  35.965  23.735
2474.72  35.965  23.766
2475.22  36.029  23.735
2475.72  35.965  23.766
2476.22  35.965  23.735
2476.72  35.965  23.735
2477.22  36.029  23.705
2477.72  36.029  23.735
2478.22  35.965  23.797
2478.72  35.965  23.735
2479.22  36.029  23.766
2479.72  36.093  23.705
2480.22  35.965  23.766
2480.72  35.965  23.766
2481.22  35.965  23.766
2481.72  35.901  23.735
2482.22  35.965  23.766
2482.72  35.901  23.735
2483.22  36.029  23.735
2483.72  36.029  23.735
2484.22  35.965  23.766
2484.72  35.965  23.766
2485.22  36.029  23.766
2485.72  36.029  23.766
2486.22  35.965  23.735
2486.72  36.029  23.735
2487.22  35.965  23.766
2487.72  35.965  23.735
2488.22  36.093  23.735
2488.72  36.029  23.735
2489.22  35.965  23.766
2489.72  35.965  23.735
2490.22  36.029  23.766
2490.72  36.029  23.766
2491.22  35.965  23.735
2491.72  35.965  23.766
2492.22  36.029  23.766
2492.72  36.029  23.735
2493.22  35.965  23.766
2493.72  35.965  23.735
2494.22  35.965  23.766
2494.72  35.965  23.766
2495.22  35.965  23.766
2495.72  36.029  23.766
2496.22  35.965  23.735
2496.72  36.093  23.797
2497.22  35.901  23.735
2497.72  36.029  23.797
2498.22  36.029  23.735
2498.72  35.965  23.766
2499.22  35.965  23.735
2499.72  36.029  23.766
2500.22  35.965  23.766
2500.72  35.965  23.766
2501.22  36.029  23.735
2501.72  35.965  23.766
